315
391
391
391
392
393
395
398
401
404
408
411
416
420
425
429
434
439
442
446
448
450
451
452
451
449
447
443
439
435
431
426
421
417
413
409
405
402
400
398
396
396
397
398
400
402
405
408
412
415
419
423
426
430
434
437
441
443
445
446
447
446
443
441
437
432
428
423
417
412
407
401
395
389
383
378
374
370
367
364
363
362
362
363
364
367
369
373
377
382
387
392
396
401
404
407
410
412
413
414
414
413
411
408
405
401
397
393
387
382
376
370
365
358
352
347
343
338
335
333
330
329
328
327
328
329
331
333
336
340
343
347
351
354
357
361
364
368
370
373
375
378
379
380
381
380
379
376
372
367
362
355
349
342
336
330
325
321
317
315
313
312
312
312
314
317
319
322
326
330
334
338
342
347
351
354
358
360
363
364
365
366
365
364
362
359
356
352
348
343
338
334
329
325
320
316
312
309
306
304
303
304
304
306
309
313
317
322
327
331
336
340
345
350
354
358
362
366
368
371
373
374
375
374
373
370
367
362
358
354
349
344
340
336
332
328
324
321
319
317
316
316
316
318
319
322
324
326
329
333
336
340
344
347
351
354
356
358
360
361
362
361
362
361
360
358
356
354
351
348
345
342
339
337
335
333
330
327
323
320
317
315
314
313
314
315
317
319
322
325
329
333
337
342
346
351
356
360
365
367
369
370
370
369
367
364
361
358
353
348
343
338
333
328
323
319
316
314
312
311
310
310
312
313
316
319
323
327
332
336
340
344
349
353
357
360
364
366
368
369
370
370
370
369
366
363
359
355
352
348
344
340
337
335
332
329
327
324
322
320
319
319
319
320
321
323
326
329
332
335
338
341
343
346
349
351
354
356
357
359
359
360
360
359
358
357
356
354
352
349
346
344
341
338
335
332
329
326
324
322
322
322
324
326
329
333
336
340
344
348
353
357
362
366
369
373
376
378
380
381
382
381
380
380
377
376
373
372
369
366
363
360
357
354
351
349
347
346
346
346
346
347
348
350
351
353
356
358
362
365
368
371
373
376
379
382
384
386
388
389
390
389
388
387
384
382
378
375
371
367
364
360
357
354
352
351
349
348
348
348
348
349
351
354
357
359
363
368
372
378
382
388
392
396
399
402
404
406
407
406
405
404
402
400
398
395
392
389
385
381
377
373
369
366
363
359
357
354
353
351
350
348
349
349
350
351
353
356
360
365
369
374
379
382
386
389
393
395
396
397
398
397
396
394
392
390
388
385
383
381
378
376
374
372
370
368
367
366
367
366
368
369
371
374
376
381
385
389
394
399
405
410
415
419
424
427
429
431
432
432
431
430
429
427
425
422
419
416
412
409
404
400
395
391
388
385
383
381
380
380
381
383
386
390
395
400
406
412
418
425
431
438
444
449
453
457
460
463
464
465
465
464
463
460
458
454
450
445
439
434
429
424
420
417
414
411
409
408
407
408
408
410
411
414
416
420
423
427
431
436
442
448
454
460
465
470
475
478
481
484
485
486
484
481
477
473
469
464
459
453
448
442
436
431
425
421
416
412
409
405
403
400
399
399
399
401
404
407
412
416
421
426
430
435
439
443
446
448
450
451
451
451
450
448
447
445
443
440
437
434
431
428
424
421
418
415
412
410
408
407
407
407
408
409
411
414
417
420
423
426
430
434
437
441
444
448
451
453
456
458
459
460
460
461
460
459
457
455
452
449
445
443
438
434
430
427
424
421
419
417
416
415
415
415
416
416
418
420
423
426
430
434
438
443
447
451
455
458
462
464
466
467
467
467
465
464
462
459
456
453
449
445
442
438
435
432
430
428
426
426
426
427
428
430
433
436
440
445
450
454
459
464
468
472
477
480
483
485
486
487
486
485
482
480
477
474
470
467
463
459
454
450
445
441
437
433
430
428
427
426
425
426
425
426
426
427
428
430
432
434
437
438
441
442
444
445
446
447
448
449
449
450
450
449
448
446
444
441
438
434
430
427
423
420
416
413
409
406
403
401
399
399
401
403
406
411
416
421
428
435
442
449
456
463
470
477
484
491
496
502
506
509
512
515
516
517
517
517
515
513
510
507
503
498
493
487
482
477
471
467
462
458
454
451
449
448
448
449
451
452
455
458
459
461
461
461
459
455
450
443
435
426
416
405
395
384
373
363
352
342
333
324
317
310
304
300
297
296
295
296
298
301
306
310
316
322
328
334
341
348
353
360
366
371
377
381
385
388
391
392
393
392
391
389
386
383
378
373
368
363
358
352
347
341
336
332
328
325
322
319
317
316
316
317
318
321
324
327
329
333
335
338
341
344
346
349
351
352
353
353
352
351
348
346
344
340
337
334
330
326
322
318
315
311
307
303
299
296
293
291
290
289
288
290
290
293
295
298
302
307
312
316
322
327
332
336
340
343
345
347
348
348
347
345
343
341
338
335
332
329
325
321
317
313
310
306
303
300
298
296
296
296
296
297
298
300
302
305
309
313
318
322
327
331
334
337
339
341
342
343
343
343
343
343
342
341
339
337
334
331
327
323
320
316
312
307
303
300
298
297
296
296
297
299
302
305
309
312
316
320
323
327
331
334
337
340
343
346
348
349
350
350
349
347
344
340
335
330
324
318
312
306
301
295
291
288
284
282
280
279
280
280
282
285
287
291
294
299
304
309
315
320
326
331
337
342
346
350
352
353
353
352
349
346
343
341
338
334
331
328
324
321
317
313
310
307
305
303
301
301
301
302
303
305
307
310
313
316
319
323
327
332
336
340
344
348
351
354
356
356
356
355
353
350
346
342
337
331
324
318
312
306
301
297
294
291
289
288
288
289
291
293
296
299
303
306
310
315
319
324
329
333
337
341
344
347
349
350
350
350
349
347
345
342
339
335
332
329
324
321
317
313
309
305
302
300
298
296
294
294
294
295
297
299
303
307
312
317
322
327
332
337
341
344
347
350
351
352
353
353
352
351
349
347
344
341
337
333
329
324
320
316
312
309
307
306
305
304
304
304
304
304
305
307
310
312
315
318
322
326
330
334
338
342
346
350
353
355
358
360
360
360
359
359
357
354
351
348
343
339
335
331
328
325
322
320
319
318
318
318
319
321
324
326
330
333
337
341
346
350
353
357
360
362
364
365
366
367
367
367
367
366
366
365
363
361
359
357
354
351
348
344
341
337
335
332
331
330
328
327
326
326
326
327
329
331
334
337
341
344
349
353
357
361
364
366
368
370
370
370
370
368
366
364
360
357
352
348
343
338
333
327
322
317
312
308
304
301
298
297
296
296
298
300
302
306
310
313
318
322
326
331
334
338
342
344
347
349
350
350
350
348
346
342
338
333
327
321
314
308
301
295
289
283
278
273
269
266
264
263
263
263
264
266
269
272
275
279
284
288
292
297
301
306
310
315
318
322
324
326
327
327
326
324
322
319
316
312
307
303
297
292
287
282
278
274
272
269
268
267
267
267
269
271
273
277
281
286
290
295
299
303
307
311
314
316
319
320
321
321
321
320
319
317
315
313
310
306
302
297
292
288
284
279
275
271
268
265
264
264
264
267
268
271
274
278
282
285
290
294
298
303
307
312
316
320
324
327
329
331
332
332
332
331
328
326
323
320
316
313
309
305
301
297
294
292
290
289
288
288
290
290
291
292
293
295
298
300
303
306
309
313
317
320
323
326
329
331
332
333
334
335
334
333
331
328
326
322
318
313
309
303
298
293
288
284
280
278
276
275
276
276
279
282
286
290
294
300
305
311
316
321
326
330
334
337
339
340
341
342
342
342
341
340
339
337
336
333
330
327
324
320
317
313
309
306
304
301
299
298
298
298
299
300
303
305
308
312
316
320
324
328
332
335
339
342
345
347
349
349
350
349
348
345
343
341
338
334
331
328
324
320
318
315
313
311
309
308
307
307
307
309
311
313
316
319
323
327
332
336
341
347
352
357
361
366
369
371
373
372
371
368
365
362
358
354
349
345
339
335
328
323
317
312
308
305
302
300
298
297
297
297
299
300
303
306
309
314
318
323
328
334
339
344
350
355
361
365
369
372
374
376
376
376
373
370
366
361
355
349
344
339
333
328
323
319
316
313
311
311
311
312
315
317
321
325
329
334
339
344
349
353
358
362
365
367
368
369
368
367
365
364
361
358
355
351
346
341
337
333
328
324
320
316
313
311
309
308
308
309
310
312
315
318
322
327
331
336
341
346
350
353
356
358
361
363
365
367
369
371
371
372
371
370
369
367
365
362
359
356
352
349
346
343
340
338
336
335
334
335
336
337
338
340
342
344
347
349
352
355
358
362
365
368
371
374
377
379
381
382
383
383
382
381
379
376
373
369
364
360
355
350
345
340
336
332
329
327
325
324
324
325
327
329
333
336
341
346
350
355
357
361
363
366
368
370
372
373
374
374
374
373
372
370
368
365
362
359
355
351
347
343
340
337
334
332
330
329
328
328
329
331
333
336
339
343
346
350
354
358
361
365
369
373
376
379
382
385
387
388
388
387
386
384
382
379
377
374
371
368
365
362
359
356
353
350
347
344
342
340
338
337
336
337
338
340
342
346
349
353
357
360
364
367
370
374
377
380
382
383
383
383
382
381
378
375
372
368
364
359
355
351
346
342
338
334
331
329
327
326
326
327
328
330
332
334
336
339
342
345
347
349
351
352
353
354
354
355
355
354
354
352
350
347
343
338
332
326
319
312
306
300
295
291
287
283
281
278
278
278
278
280
282
285
289
293
297
301
305
309
314
318
321
325
327
330
332
333
333
333
332
330
327
324
321
318
315
311
308
305
301
298
295
292
290
288
286
285
284
284
284
285
287
290
293
297
301
305
310
315
319
323
327
331
334
336
338
340
340
340
339
337
335
333
330
326
323
319
315
311
308
305
302
300
298
297
295
295
295
295
297
298
300
302
305
308
311
314
318
321
324
327
330
333
335
338
339
341
342
343
344
343
344
343
342
342
340
338
336
333
330
327
323
320
317
314
311
309
307
307
307
309
311
314
317
320
324
326
330
333
336
339
341
344
347
349
351
352
353
353
352
351
349
346
343
340
336
333
329
326
323
320
318
317
317
318
319
321
325
329
335
341
349
356
365
375
384
395
406
416
427
437
447
455
463
469
475
479
482
484
485
485
483
481
476
472
466
460
452
445
437
430
421
414
407
402
396
393
389
386
384
382
380
378
376
374
371
367
364
359
355
350
345
340
336
332
328
323
320
316
312
309
305
302
299
297
295
293
291
289
287
285
283
282
281
281
281
281
282
283
285
287
290
293
297
301
306
311
316
322
327
332
337
341
345
348
350
353
354
354
354
353
352
349
345
341
336
331
326
320
314
309
304
300
296
293
290
288
286
285
286
287
290
293
298
303
309
315
322
328
335
341
347
353
358
362
365
367
367
367
366
365
362
359
354
350
344
338
332
327
321
315
310
306
302
299
296
294
293
293
294
295
297
300
303
306
311
315
320
326
331
336
341
345
349
352
355
357
358
359
359
357
355
352
349
345
342
338
334
329
325
322
318
316
313
311
308
307
307
307
308
309
311
314
318
321
325
331
335
341
346
351
356
360
364
366
368
368
368
367
364
362
358
354
350
345
340
335
329
324
318
313
308
304
300
298
296
296
297
297
299
302
305
309
313
318
323
329
335
340
346
351
357
361
366
369
371
373
373
374
373
371
369
366
363
359
355
350
346
341
338
334
332
330
328
327
328
328
329
330
333
336
339
343
347
352
357
362
367
372
378
384
389
394
397
400
402
403
402
401
399
397
393
390
386
382
378
373
368
364
360
355
351
347
344
342
340
338
337
338
339
341
344
348
352
357
361
366
371
376
381
386
391
396
400
404
408
410
412
412
411
410
407
404
399
394
388
382
375
369
363
357
351
346
342
339
336
336
335
336
338
341
344
348
353
358
363
369
375
380
386
392
398
403
407
411
414
417
418
419
419
418
416
414
411
407
404
399
395
390
386
382
378
375
372
370
368
368
368
369
370
373
376
379
383
387
391
396
401
406
411
416
421
425
430
434
438
440
442
443
443
442
440
435
431
425
420
414
408
403
398
393
387
383
378
374
371
369
368
368
369
371
373
377
381
385
391
397
404
410
417
423
429
434
439
443
446
448
451
451
452
451
451
449
446
443
439
435
430
426
421
417
413
409
406
404
402
401
402
403
404
406
410
413
418
422
427
432
437
441
446
451
455
458
461
462
464
464
464
462
461
459
456
453
450
446
442
438
434
429
425
420
416
412
409
407
405
403
403
403
403
405
407
409
412
416
420
424
429
434
439
443
447
451
454
456
458
458
457
456
453
450
447
443
438
433
428
423
417
412
406
401
396
392
388
385
382
379
377
375
374
374
374
374
376
377
380
383
386
389
393
396
400
403
406
409
411
413
412
411
409
407
403
399
395
390
385
380
374
369
363
357
352
347
344
341
338
337
337
337
338
339
341
343
346
349
353
357
362
366
371
375
379
383
386
388
389
390
390
389
387
384
382
379
374
370
366
361
355
350
344
339
334
329
325
322
319
316
314
313
313
314
317
319
323
328
333
338
344
349
355
360
365
370
374
378
380
383
384
384
384
382
380
377
373
368
363
358
353
348
343
338
334
330
327
324
323
322
322
323
324
326
329
332
336
341
346
351
355
360
365
370
375
380
384
387
391
393
393
394
393
391
389
386
382
377
372
366
360
354
348
342
336
331
325
320
316
312
310
308
308
309
311
314
317
321
326
332
338
343
349
355
361
367
372
378
382
386
388
390
391
391
389
387
384
380
375
370
366
361
356
352
348
343
340
337
334
332
331
329
329
329
329
330
332
334
336
339
342
346
350
354
358
361
365
368
370
372
373
373
372
370
368
366
363
360
356
353
348
344
340
336
333
329
326
323
322
321
321
322
323
325
328
331
334
338
342
347
352
357
361
366
370
373
376
377
379
379
380
379
378
377
374
371
368
363
359
354
350
345
341
337
334
331
328
326
325
325
325
327
328
331
334
337
340
343
345
348
351
353
357
360
363
366
369
372
374
375
375
374
373
371
369
366
364
360
356
352
348
345
341
338
335
332
330
328
327
327
328
329
331
334
337
341
344
347
350
353
356
359
362
365
368
371
372
374
375
375
375
374
371
368
364
359
354
349
344
339
334
330
325
322
319
317
315
314
314
314
314
314
315
317
319
322
325
330
335
339
345
350
354
359
362
365
367
369
370
370
369
367
364
361
357
353
349
344
339
334
328
324
319
315
311
308
305
303
302
302
303
305
307
310
314
318
322
327
332
336
340
344
348
352
356
359
362
364
365
365
365
363
362
359
356
352
347
343
337
331
325
319
313
308
303
299
295
292
290
289
289
290
291
294
297
301
306
311
317
323
329
336
342
348
354
360
365
369
373
375
377
378
377
376
373
370
366
361
356
351
344
338
331
325
319
313
309
305
303
301
300
300
301
302
304
307
310
313
317
321
325
330
335
340
346
350
354
358
360
362
363
364
363
362
360
357
355
351
347
344
339
335
331
326
321
317
312
309
306
304
302
302
303
304
307
311
315
319
324
329
335
340
346
351
355
359
362
366
367
369
369
369
369
367
365
362
358
355
351
346
341
335
329
323
317
311
307
303
300
297
296
296
298
300
302
306
311
316
322
328
334
339
344
349
353
358
361
365
367
370
372
373
374
375
374
373
370
367
364
360
356
352
348
344
340
337
334
331
329
328
327
327
328
330
332
334
337
340
343
347
350
354
358
362
365
368
371
374
376
377
378
377
376
373
369
364
358
352
345
338
331
325
320
315
311
308
306
304
304
304
304
305
307
309
312
315
318
322
326
331
336
341
346
350
355
357
360
362
363
364
364
363
362
360
357
353
349
345
340
336
331
326
322
318
314
311
308
305
303
301
301
301
302
304
307
311
314
319
324
330
335
340
345
349
353
356
358
360
361
361
360
359
358
355
351
347
343
338
333
328
322
318
313
309
306
302
300
298
299
298
300
302
303
306
308
311
313
316
319
322
326
330
333
337
341
345
348
352
354
357
358
359
360
359
358
356
354
351
347
343
339
335
331
327
324
320
318
316
314
314
313
314
315
317
320
323
327
330
335
339
343
347
351
355
359
363
366
368
370
371
372
372
371
370
368
365
361
357
352
346
341
335
330
325
320
317
313
311
309
308
308
309
311
314
318
322
327
332
337
342
347
352
356
360
364
367
369
371
372
372
372
371
369
366
363
360
357
353
350
346
343
340
337
335
335
334
335
337
341
345
350
357
364
372
381
391
402
414
426
437
449
460
470
479
486
493
497
501
503
503
503
502
498
494
489
483
475
467
458
450
439
430
420
412
404
397
391
387
383
380
378
376
374
372
370
367
364
360
357
353
350
347
344
341
338
336
334
332
331
330
328
327
326
325
323
322
320
319
317
315
313
312
310
309
309
309
310
311
313
315
318
321
325
329
333
337
342
346
351
357
361
366
370
373
375
377
378
379
380
380
379
378
377
375
372
369
366
362
358
355
351
347
343
340
336
332
328
325
323
321
319
318
318
318
319
320
322
324
327
330
334
337
342
345
348
351
354
356
358
359
360
359
358
358
356
354
352
349
347
343
340
336
333
329
325
322
320
319
317
317
316
316
316
317
318
321
324
327
331
335
339
343
348
352
356
359
362
365
366
368
368
368
368
367
366
363
360
357
353
350
346
343
339
336
333
330
328
327
326
326
326
326
327
328
330
331
334
336
339
342
345
348
351
355
357
361
363
364
365
365
366
365
364
362
360
357
354
350
346
342
338
333
329
324
320
317
314
313
312
312
313
315
317
321
325
329
333
338
343
349
353
359
363
368
372
375
378
380
382
382
382
380
378
375
372
368
364
360
356
352
348
344
340
337
335
333
331
330
330
330
330
330
331
332
334
337
340
343
348
352
356
360
364
368
372
376
379
382
384
386
386
386
386
384
382
379
376
372
368
364
359
355
351
347
343
341
339
338
338
337
338
339
340
343
345
349
353
356
361
366
371
376
381
386
391
395
399
402
404
406
407
407
407
405
403
400
396
393
388
384
378
372
367
362
357
353
351
348
346
346
346
348
350
353
356
360
365
369
374
380
385
390
396
401
405
410
414
417
419
419
419
418
416
414
410
406
402
397
391
385
380
375
370
366
362
360
357
356
355
355
356
358
361
364
367
372
377
382
388
394
400
405
411
416
421
425
429
432
434
435
435
434
432
430
426
421
417
411
406
401
396
390
386
382
379
377
375
374
373
373
373
374
377
379
382
386
389
394
398
402
407
412
416
420
424
427
429
431
432
432
433
433
432
431
430
428
425
423
420
417
414
411
408
405
401
398
395
392
390
389
388
389
390
392
395
398
401
406
411
416
421
426
432
436
440
444
447
449
450
450
449
447
445
442
439
435
430
426
421
416
411
407
403
400
397
395
393
393
392
393
393
395
397
400
403
406
410
413
417
421
424
428
432
435
439
442
444
446
448
448
448
446
443
440
435
430
424
418
411
404
397
391
384
377
371
366
361
357
354
352
350
350
350
351
353
356
359
362
366
370
375
379
384
388
392
396
399
402
403
404
404
404
402
400
397
394
389
384
378
372
367
361
355
350
345
340
335
332
329
328
327
327
327
329
332
334
338
342
347
351
357
361
366
371
375
379
383
384
386
386
385
383
381
377
373
368
363
357
351
345
338
332
327
321
317
313
310
307
306
305
305
306
307
310
313
317
321
326
330
335
340
345
350
354
358
362
365
367
369
370
369
368
366
363
359
356
352
347
342
337
332
326
320
315
310
306
303
301
300
300
301
303
305
309
313
317
323
328
334
340
345
350
355
359
363
366
369
371
372
373
373
373
372
370
367
364
360
355
351
346
342
337
332
328
324
320
317
314
312
311
310
310
312
313
316
319
323
326
330
334
339
343
347
351
355
357
360
362
363
364
363
362
360
357
353
349
344
340
335
330
325
321
317
314
311
308
307
306
306
307
309
311
314
318
323
327
332
336
340
345
350
354
359
364
368
371
374
376
377
378
377
375
372
369
365
361
356
351
346
341
336
331
325
321
317
313
310
308
307
306
307
308
311
314
318
322
328
333
338
344
350
355
360
364
367
370
372
373
374
374
373
371
369
366
363
359
355
351
346
341
336
331
326
322
318
314
312
310
309
309
309
311
314
318
322
326
330
334
338
343
348
353
358
363
367
370
373
375
377
377
378
377
376
374
372
369
365
361
356
350
345
340
334
330
326
322
318
316
314
314
315
316
317
320
324
328
333
338
344
350
355
361
366
370
374
378
381
383
384
385
385
385
384
383
381
378
375
371
366
361
356
351
346
341
337
334
331
329
326
325
324
324
325
326
329
332
335
339
343
348
353
358
363
368
372
376
380
382
384
384
384
383
380
377
373
368
362
357
352
345
339
334
329
324
320
317
314
312
311
311
312
314
316
320
325
331
337
343
350
357
363
368
372
376
380
382
384
385
385
385
384
383
382
379
376
372
368
363
358
353
347
341
336
331
327
324
321
319
318
318
319
320
323
326
329
333
338
342
347
351
356
361
365
369
372
375
377
378
379
380
380
378
377
374
371
367
362
356
350
344
339
333
329
325
321
319
317
316
315
315
317
318
320
322
325
329
333
338
343
349
354
359
365
369
374
378
382
384
386
386
386
385
382
379
375
371
366
361
356
352
348
343
338
334
329
326
323
321
320
320
321
323
326
329
334
338
344
349
355
360
366
371
376
381
386
389
392
393
395
395
394
393
391
388
384
380
376
370
365
360
354
348
342
337
332
328
324
321
319
318
318
320
322
325
329
333
338
344
350
356
362
367
372
376
380
384
387
390
392
393
393
392
390
388
385
381
378
373
369
365
361
357
353
349
346
344
342
342
341
342
343
345
347
350
354
358
363
367
372
377
382
387
392
396
399
402
403
404
404
404
402
400
397
394
389
383
377
371
365
358
352
346
340
334
329
324
320
317
315
313
313
313
314
316
318
321
325
328
333
337
341
346
350
355
358
361
364
367
368
370
371
370
369
368
366
363
360
357
354
350
347
344
340
337
333
330
327
324
321
319
319
318
320
321
324
327
331
336
341
347
352
357
362
367
371
375
378
379
379
379
378
376
373
370
365
360
355
349
342
335
328
323
317
313
309
306
303
301
300
299
300
301
303
307
311
316
321
327
333
339
345
350
355
360
365
368
371
374
376
377
378
377
376
373
369
364
359
353
347
342
336
330
325
320
317
314
313
311
311
311
313
316
318
322
326
331
335
340
346
351
357
362
367
372
375
379
380
382
383
382
381
380
377
374
371
368
364
360
356
352
348
344
340
337
334
331
329
327
325
325
324
324
325
326
328
331
334
339
344
349
355
360
365
369
373
376
377
378
378
378
377
375
373
369
365
360
355
349
343
337
332
328
324
321
319
317
317
317
318
320
323
328
334
342
351
361
372
383
394
405
416
427
438
448
458
467
475
481
488
493
497
499
500
500
499
495
491
486
481
475
468
461
453
445
438
431
423
418
413
409
406
405
405
407
409
412
415
418
422
424
426
427
426
424
421
416
409
402
393
383
374
365
356
347
339
330
322
315
308
303
297
294
290
287
285
285
284
284
286
288
291
295
299
304
310
317
323
330
336
342
348
354
359
364
369
373
377
380
383
384
385
385
384
382
380
377
373
370
366
362
358
354
350
347
344
342
340
340
340
341
342
344
347
350
353
357
361
365
369
373
378
382
386
390
394
398
401
404
405
405
404
403
401
399
396
393
390
387
383
379
375
370
366
362
359
356
353
351
350
349
349
350
352
354
357
360
364
368
372
376
380
384
388
392
396
399
402
404
405
406
406
406
404
403
401
398
395
391
387
384
379
376
372
369
366
363
360
358
356
356
356
357
360
363
368
373
378
384
391
397
404
409
414
417
420
421
421
421
421
419
418
415
412
408
405
401
396
392
388
384
380
377
373
371
368
366
363
362
360
360
360
361
362
365
367
371
375
379
384
389
395
400
405
409
413
417
419
421
422
422
423
423
422
420
418
415
410
405
399
393
387
381
375
370
366
364
362
361
362
363
365
368
372
376
381
386
391
397
403
409
416
422
429
435
440
444
448
451
452
453
453
451
449
447
443
439
435
431
426
420
415
411
406
402
398
395
393
391
390
390
390
392
395
398
402
407
412
417
423
428
433
437
442
446
451
456
459
462
465
467
468
469
468
467
465
462
460
457
454
451
447
444
441
437
434
431
429
428
429
429
430
432
433
436
438
442
446
451
457
462
468
474
479
483
486
488
490
492
492
492
491
489
486
482
478
474
468
463
458
454
450
447
445
443
442
441
441
441
442
444
446
449
452
456
460
464
469
474
480
486
492
498
504
509
514
519
523
528
531
534
536
536
535
532
528
523
517
512
506
501
495
490
485
480
476
472
470
469
468
468
469
471
473
476
480
485
490
495
501
507
513
519
524
528
533
537
540
542
543
543
543
541
540
538
536
534
532
530
528
527
525
522
520
518
517
515
513
513
511
511
512
512
513
515
516
518
521
523
526
530
534
538
543
547
552
556
560
563
566
569
571
573
574
575
575
576
575
574
573
571
569
567
566
565
563
563
560
558
556
553
550
547
545
544
543
543
543
544
546
548
551
554
557
560
562
563
564
565
565
565
565
564
564
563
562
560
558
555
552
548
543
539
532
527
522
518
515
514
513
514
515
517
519
522
523
525
527
528
529
530
531
532
533
535
537
539
542
544
546
547
548
548
548
547
545
544
542
538
534
530
526
522
519
516
513
511
509
508
507
505
504
503
502
500
498
497
495
493
491
490
489
489
490
492
495
500
507
513
520
526
531
535
538
539
540
540
538
536
533
529
525
520
514
509
503
497
491
486
480
474
469
465
463
461
459
458
456
455
455
456
458
460
463
466
470
473
477
480
483
485
486
486
486
484
482
480
477
474
471
467
464
460
456
452
448
444
440
436
433
429
426
423
421
418
415
413
412
412
412
413
415
415
416
417
418
418
419
420
420
421
421
420
419
418
415
412
408
403
398
392
387
381
375
369
364
359
354
351
348
346
345
345
346
348
349
352
354
357
361
366
371
376
382
388
394
400
405
409
413
416
417
418
417
415
412
407
403
398
393
388
383
379
375
371
368
366
364
364
365
367
369
373
377
383
389
395
402
408
414
420
426
432
438
444
450
457
463
470
476
483
489
494
499
504
509
513
516
519
522
524
526
527
529
530
531
532
533
534
535
535
536
536
537
538
539
540
542
544
546
550
554
558
563
568
573
579
584
590
596
602
609
615
622
628
635
643
650
654
656
657
658
658
659
659
659
659
659
659
660
660
660
660
660
660
660
660
660
661
660
661
661
661
661
661
661
661
661
661
661
661
661
661
661
662
662
662
662
662
662
662
662
661
661
661
661
661
661
661
661
661
661
661
661
661
661
661
661
661
661
661
661
661
661
661
661
661
661
661
662
662
662
662
662
662
662
662
662
662
662
662
662
661
662
661
662
661
661
661
661
661
661
661
661
661
661
661
661
661
661
661
661
661
661
661
661
661
661
661
661
661
661
662
662
662
662
662
662
662
662
662
662
661
662
662
662
661
661
661
661
661
661
661
661
661
661
661
661
661
661
661
661
661
661
661
661
661
661
661
661
662
661
662
662
662
662
662
662
662
662
662
662
662
661
661
661
661
662
661
661
661
661
661
661
661
661
661
661
661
661
661
661
661
661
661
662
661
661
661
661
661
662
661
662
662
662
662
662
662
662
662
661
661
662
662
661
661
661
661
661
661
661
661
661
661
661
661
661
661
661
661
661
661
661
661
661
661
661
661
661
661
662
662
662
662
662
662
662
662
662
662
662
662
661
661
661
662
661
661
661
661
661
661
661
661
661
661
661
661
661
661
661
661
661
661
661
661
661
661
662
661
662
662
662
662
662
662
662
662
662
662
662
662
662
661
661
661
661
661
661
661
661
661
661
661
661
661
661
661
661
661
661
661
661
661
661
661
662
661
661
661
661
662
662
662
662
662
662
661
661
661
661
661
661
661
661
661
661
661
661
661
661
661
661
661
661
661
661
661
661
661
661
661
661
661
661
661
661
662
661
662
661
661
661
661
661
661
662
661
661
661
661
661
661
661
661
661
661
661
660
660
660
660
660
660
660
660
660
660
660
660
660
660
660
660
660
660
660
660
660
660
660
660
660
660
660
660
660
660
659
659
659
659
658
658
658
658
657
657
656
655
654
651
648
642
635
627
619
609
600
590
580
570
560
551
542
534
526
519
512
507
502
498
495
493
491
490
489
488
487
485
483
481
477
474
470
465
460
454
447
440
432
424
415
406
397
388
380
372
365
359
353
348
344
341
339
339
339
340
343
346
350
355
361
367
372
378
384
389
393
397
400
401
401
400
397
393
388
382
375
366
357
347
336
326
315
305
296
287
279
272
265
260
256
253
251
250
249
250
252
255
259
264
270
275
282
288
294
300
305
311
315
319
321
322
322
321
319
314
310
304
298
292
284
277
269
262
255
248
243
237
233
229
226
222
220
217
216
215
215
215
217
219
222
225
228
231
234
237
239
239
239
238
236
232
229
223
217
209
200
188
174
158
139
120
100
79
58
38
19
2
0
0
0
0
0
0
0
0
0
0
0
0
0
0
0
0
3
7
12
17
20
24
26
27
27
26
23
18
12
4
0
0
0
0
0
0
0
0
0
0
0
0
0
0
0
0
0
0
0
0
0
0
0
0
0
0
0
0
0
0
0
0
0
0
0
0
0
0
0
0
0
0
0
0
0
0
0
0
0
0
0
0
0
0
0
0
0
0
0
0
0
0
0
0
0
0
0
0
0
0
0
0
0
0
0
0
0
0
0
0
0
0
0
0
0
0
0
0
0
0
0
0
0
0
0
0
0
0
0
0
0
0
0
0
0
0
0
0
0
0
0
0
0
0
0
0
0
0
0
0
0
0
0
0
0
0
0
0
0
0
0
0
0
0
0
0
0
0
0
0
0
0
0
0
0
0
0
0
0
0
0
0
0
0
0
0
0
0
0
0
0
0
0
0
0
0
0
0
0
0
0
0
0
0
0
0
0
0
0
0
0
0
0
0
0
0
0
0
0
0
0
0
0
0
0
0
0
0
0
0
0
0
0
0
0
0
0
0
0
0
0
0
0
0
0
0
0
0
0
0
0
0
0
0
0
0
0
0
0
0
0
0
0
0
0
0
0
0
0
0
0
0
0
0
0
0
0
0
0
0
0
0
0
0
0
0
0
0
0
0
0
0
0
0
0
0
0
0
0
0
0
0
0
0
0
0
0
0
0
0
0
0
0
0
0
0
0
0
0
0
0
0
0
0
0
0
0
0
0
0
0
0
0
0
0
0
0
0
0
0
0
0
0
0
0
0
0
0
0
0
0
0
0
0
0
0
0
0
0
0
0
0
0
0
0
0
0
0
0
0
0
0
0
0
0
0
0
0
0
0
0
0
0
0
0
0
0
0
0
0
0
0
0
0
0
0
0
0
0
0
0
0
0
0
0
0
0
0
0
0
0
0
0
7
18
32
47
62
77
92
105
117
128
136
143
147
149
149
147
142
137
132
125
120
113
106
101
95
91
87
85
84
85
89
93
100
107
115
125
133
143
152
163
174
185
197
207
217
226
233
241
247
253
256
258
258
256
252
247
240
232
221
211
199
186
174
161
149
139
129
121
115
110
108
109
111
116
122
130
140
150
161
172
182
192
201
209
215
220
223
224
223
220
214
207
198
187
175
161
147
132
117
103
88
73
58
44
32
19
8
0
0
0
0
0
0
0
0
0
0
0
0
2
7
12
17
20
21
21
18
15
10
3
0
0
0
0
0
0
0
0
0
0
0
0
0
0
0
0
0
0
0
0
0
0
0
0
0
0
0
0
0
0
0
0
0
0
0
0
0
0
0
0
0
0
0
0
0
0
0
0
0
0
0
0
0
0
0
0
0
0
0
0
0
0
0
0
0
0
0
0
0
0
0
0
0
0
0
0
0
0
0
0
0
0
0
0
0
0
0
0
0
0
0
0
0
0
0
0
0
0
0
0
0
0
0
0
0
0
0
0
0
0
0
0
0
0
0
0
0
0
0
0
0
0
0
0
0
0
0
0
0
0
0
0
0
0
0
0
0
0
0
0
0
0
0
0
0
0
0
0
0
0
0
0
0
0
0
0
0
0
0
0
0
0
0
0
0
0
0
0
0
0
0
0
0
0
0
0
0
0
0
0
0
0
0
0
0
0
0
0
0
0
0
0
0
0
0
0
0
0
0
0
0
0
0
0
0
0
0
0
0
0
0
0
0
0
0
0
0
0
0
0
0
0
0
0
0
0
0
0
0
0
0
0
0
0
0
0
0
0
0
0
0
0
0
0
0
0
0
0
0
0
0
0
0
0
0
0
0
0
0
0
0
0
0
0
0
0
0
0
0
0
0
0
0
0
0
0
0
0
0
0
0
0
0
0
0
0
0
0
0
0
0
0
0
0
0
0
0
0
0
0
0
0
0
0
0
0
0
0
0
0
0
0
0
0
0
0
0
0
0
0
0
0
0
0
0
0
0
0
0
0
0
0
0
0
0
0
0
0
0
0
0
0
0
0
3
9
16
23
31
39
48
56
64
72
79
86
93
99
105
110
115
119
122
124
126
126
126
125
123
120
117
113
111
108
105
104
103
101
100
100
100
100
100
101
103
105
109
113
119
125
131
137
143
149
154
158
162
166
169
172
174
177
178
179
178
177
175
173
171
169
168
167
165
164
163
162
162
162
162
163
164
165
167
169
171
174
176
177
179
181
184
186
189
192
195
197
199
201
200
200
198
197
195
193
192
190
188
185
183
181
179
177
175
172
170
168
167
166
166
167
168
170
173
177
181
185
189
194
198
203
207
212
216
221
226
231
235
238
240
240
240
239
237
234
230
225
220
214
208
202
197
193
190
188
187
187
188
190
192
196
200
204
208
213
217
221
224
228
231
234
236
239
240
241
241
242
243
243
244
245
246
246
247
247
247
246
245
245
245
245
244
243
242
240
238
237
235
235
235
235
235
235
236
236
237
237
237
238
238
239
240
242
244
246
248
249
250
251
251
250
249
247
245
243
241
239
236
234
231
229
227
226
224
223
222
220
218
217
216
215
215
215
217
219
221
225
228
232
236
240
243
245
247
248
249
249
248
246
245
243
241
240
239
237
236
235
234
233
232
232
231
230
229
228
228
227
227
227
227
227
227
228
229
231
232
235
238
241
243
244
245
246
246
246
245
245
244
243
243
243
242
242
242
242
241
240
239
238
237
236
236
236
237
238
239
239
239
239
239
240
240
240
240
240
239
238
237
236
235
234
234
233
233
232
231
229
227
224
220
217
214
211
208
206
203
201
200
199
199
199
200
201
202
203
204
205
205
206
207
209
211
212
213
214
215
216
217
218
219
220
221
222
223
224
225
225
225
225
224
223
222
220
218
216
214
212
211
209
208
206
205
205
204
205
205
207
208
209
211
212
214
215
216
218
219
221
222
224
227
229
231
233
234
235
236
236
235
233
230
228
225
223
221
219
218
218
217
217
217
219
220
223
226
230
234
239
245
251
257
263
270
278
285
294
302
311
319
327
334
341
348
354
359
363
367
370
371
370
368
364
359
352
345
338
330
324
318
313
309
306
304
302
299
297
295
293
291
288
285
281
276
269
261
253
246
239
232
226
220
214
209
204
200
196
192
189
185
181
178
175
172
170
167
166
164
164
164
165
167
169
173
176
180
185
190
195
201
206
212
216
220
224
228
231
235
238
241
244
246
249
250
252
252
252
251
250
248
246
245
242
239
237
233
230
227
225
222
221
220
218
218
217
216
216
216
216
216
216
218
218
219
221
222
224
226
228
229
231
232
233
233
234
235
235
236
237
238
239
240
241
242
243
244
245
245
245
245
245
245
245
246
246
247
248
248
249
250
251
252
253
254
254
255
255
254
254
253
252
251
249
247
245
245
245
245
247
248
250
252
255
256
257
258
258
258
257
256
256
255
255
256
258
260
262
264
267
270
274
276
279
282
284
286
288
289
290
291
292
292
293
294
294
295
295
295
296
296
297
298
299
300
301
302
302
302
302
301
300
300
299
299
299
299
299
300
301
302
304
304
305
306
307
308
309
310
312
313
314
315
316
317
318
318
319
319
320
320
320
320
320
320
320
320
320
321
322
323
324
326
328
330
331
332
334
335
337
339
342
343
345
347
349
351
352
352
351
350
349
347
346
346
345
344
343
343
343
343
343
343
343
343
343
344
344
346
346
347
347
347
347
346
346
347
347
349
351
353
356
359
362
364
367
369
373
375
379
382
385
388
390
392
393
395
395
395
395
395
394
394
393
392
392
392
391
391
390
390
389
388
387
386
385
384
382
381
380
379
378
377
376
375
375
375
375
376
377
377
379
380
381
383
385
388
390
393
396
398
400
403
406
409
412
415
418
420
422
423
425
426
427
428
429
429
430
431
432
434
435
436
436
437
437
437
437
436
435
434
433
432
432
431
430
431
430
431
432
433
434
435
437
438
438
439
440
441
442
443
444
444
444
444
444
444
446
447
450
453
458
462
466
470
473
477
480
483
485
487
489
491
493
494
495
496
496
496
496
496
495
494
492
490
488
487
485
484
483
482
480
479
479
479
480
481
482
484
486
488
489
491
493
495
496
498
499
501
503
505
507
509
511
513
514
515
515
515
516
515
515
516
515
515
516
516
516
517
517
518
519
520
521
521
521
522
522
522
522
523
523
524
525
526
527
528
529
530
530
531
531
531
532
532
532
533
534
536
537
539
541
541
541
540
538
536
535
533
532
530
529
527
525
522
519
517
514
512
511
510
509
508
508
508
508
508
508
509
509
510
511
511
511
511
510
509
507
505
504
503
501
500
499
497
496
494
493
492
492
492
492
492
493
493
494
494
495
495
496
496
497
497
498
500
501
502
505
507
510
512
515
517
519
521
523
524
526
527
528
527
527
525
524
522
520
518
516
514
512
510
508
507
506
506
506
507
508
509
511
512
513
514
515
517
518
520
522
524
526
528
530
532
534
535
536
537
536
534
533
530
527
524
522
520
518
516
515
514
513
513
514
515
517
519
521
523
525
527
529
531
533
536
539
543
546
549
551
553
556
558
559
560
561
561
562
561
561
560
560
559
557
556
554
554
552
552
551
550
549
549
548
547
547
546
547
547
547
548
548
549
550
551
553
554
556
558
560
562
563
565
565
565
565
564
562
560
558
555
553
550
547
543
540
537
534
532
531
530
531
532
535
539
543
547
551
556
561
565
570
574
577
580
583
584
585
585
583
581
578
573
567
561
555
549
545
541
539
537
536
535
533
532
531
530
529
528
528
528
527
527
526
526
526
525
525
525
525
525
525
526
526
526
527
527
528
528
529
528
528
528
528
529
529
530
531
532
533
533
533
533
532
531
529
527
526
524
523
524
524
525
526
528
529
532
534
537
540
543
545
548
550
552
554
554
553
553
552
550
548
546
544
541
539
537
534
531
528
525
522
520
517
515
513
511
510
508
507
506
506
507
507
508
509
511
513
515
518
521
524
526
529
530
532
533
535
536
537
538
539
540
540
539
538
538
537
535
534
533
531
530
528
527
525
524
523
522
521
521
521
521
522
523
524
525
525
524
523
522
522
522
522
523
523
523
524
524
524
524
523
521
520
519
517
515
514
511
510
508
507
506
505
503
502
501
499
498
496
495
493
492
490
490
490
490
491
493
495
497
499
502
503
505
506
508
510
511
512
512
512
512
512
512
511
510
509
508
507
506
503
501
498
496
493
491
489
488
486
485
485
484
484
484
484
483
483
484
484
485
485
488
489
491
493
495
496
497
499
500
501
502
503
504
504
504
504
504
503
503
502
501
501
501
500
499
499
498
497
497
497
498
499
500
502
503
505
508
509
510
510
510
510
510
509
509
508
508
507
507
507
508
509
509
510
510
509
508
507
506
504
503
502
500
499
498
498
497
497
497
497
497
497
498
499
500
502
505
507
510
512
513
514
515
515
513
512
511
509
508
506
504
503
503
502
502
502
502
500
499
497
495
493
490
488
484
481
478
473
469
464
459
454
450
446
444
442
440
440
440
441
442
445
448
451
454
457
460
461
462
462
461
460
459
459
458
458
457
456
455
454
452
451
450
450
449
448
448
447
447
448
448
449
452
454
456
458
459
460
461
461
461
460
460
460
460
460
460
462
464
466
468
470
471
471
471
469
467
463
459
453
448
443
440
436
434
432
431
431
432
433
434
435
436
437
438
439
440
441
443
445
446
449
450
451
451
451
451
451
451
452
453
455
458
461
464
468
472
476
480
484
488
491
493
495
495
495
494
493
491
487
483
479
475
471
469
466
465
464
464
465
467
469
473
478
483
488
493
499
504
510
514
520
525
529
533
537
540
543
546
548
549
551
551
551
550
549
548
546
545
545
544
544
544
545
548
551
554
557
560
562
565
566
567
567
567
567
566
564
563
562
561
560
559
559
558
556
554
551
548
545
541
538
535
532
529
526
524
522
521
521
521
523
526
530
535
541
548
556
564
573
582
591
600
608
615
622
628
634
640
645
650
653
655
655
656
655
656
655
655
654
653
652
651
650
648
646
644
642
641
639
638
637
636
635
632
629
624
619
612
603
593
582
569
556
543
531
519
508
499
490
483
476
471
466
462
459
457
456
455
455
455
456
457
458
460
463
465
468
471
475
478
483
487
493
499
506
514
522
530
537
543
548
551
554
556
556
557
555
553
550
546
541
534
528
521
515
509
503
499
496
493
491
490
489
488
487
486
485
485
485
486
489
492
495
498
501
503
505
506
507
509
510
513
515
517
519
520
520
521
521
521
521
522
522
523
522
521
520
519
518
517
517
518
519
520
520
520
518
516
513
509
505
501
497
494
493
492
493
496
499
502
506
508
510
511
512
512
511
510
508
506
504
502
500
497
494
490
486
482
479
478
476
476
475
475
475
476
478
480
482
483
483
482
479
476
472
471
471
474
478
484
491
498
506
513
519
524
529
533
537
539
541
542
542
542
541
540
538
536
535
532
529
526
524
522
520
516
512
507
502
497
492
489
485
482
478
475
472
469
466
464
463
463
464
464
464
465
465
468
472
477
482
488
493
498
503
508
513
518
523
530
537
544
550
556
561
564
566
568
567
567
565
563
560
558
555
552
548
544
541
537
534
533
533
534
536
538
540
542
545
547
550
553
555
556
556
555
552
548
543
536
529
522
516
509
503
497
491
486
482
478
475
473
471
470
470
469
468
467
467
467
467
468
470
472
474
476
479
480
480
479
476
473
469
465
461
457
454
451
449
448
446
444
440
436
432
428
424
422
421
421
423
426
429
434
439
445
450
455
459
463
467
472
479
487
496
504
512
520
526
531
535
539
543
544
544
543
542
541
540
539
538
538
540
543
550
559
572
586
602
618
633
647
654
656
657
657
658
658
658
658
659
659
659
659
660
660
660
660
661
660
661
661
661
661
661
661
661
661
661
661
661
661
661
661
661
661
661
661
661
660
660
661
661
661
661
661
661
661
661
661
661
661
661
661
661
661
662
662
662
662
661
662
662
662
662
662
662
662
662
662
661
662
661
661
661
661
661
661
661
661
661
661
661
661
661
661
661
661
661
661
661
661
662
661
662
661
662
662
662
662
662
662
662
662
662
662
662
662
662
661
661
661
661
661
661
661
661
661
661
661
661
661
661
661
661
661
661
661
661
661
661
661
661
661
661
662
661
662
662
662
662
662
662
662
662
662
662
662
661
661
661
661
661
661
661
661
661
661
661
661
661
661
661
661
661
661
661
661
661
661
661
661
661
661
661
662
661
661
661
661
661
661
661
661
661
661
661
661
661
661
660
661
660
660
660
660
660
660
660
660
660
660
660
659
660
660
660
660
660
660
660
660
660
660
660
660
660
660
660
660
660
660
660
660
660
660
660
660
660
660
660
660
660
660
660
660
660
660
660
660
660
661
660
660
660
661
660
661
660
661
661
661
661
661
661
661
661
661
661
661
661
661
661
661
661
661
661
661
661
661
661
661
661
661
661
660
661
661
661
660
660
660
660
661
660
661
660
661
660
660
660
660
660
661
660
660
661
661
660
660
660
660
660
660
660
660
659
659
659
658
658
657
657
656
654
650
644
634
624
612
600
587
575
564
551
540
528
516
504
494
482
471
460
447
433
419
404
390
374
358
343
328
315
302
291
281
270
260
248
238
226
216
207
199
195
193
191
192
192
194
197
200
204
207
211
215
218
222
226
229
230
229
227
224
219
213
205
195
185
173
160
146
130
114
96
77
56
37
18
1
0
0
0
0
0
0
0
0
0
0
0
2
8
16
24
33
45
59
75
93
113
132
152
170
186
200
211
220
227
233
237
240
241
242
243
243
244
245
247
251
255
260
266
274
283
293
305
317
330
343
356
369
382
395
408
420
433
446
460
473
486
499
510
521
531
540
548
555
561
566
571
576
582
587
593
598
603
607
611
614
616
618
620
623
626
629
632
635
639
643
647
652
654
656
656
657
658
658
658
659
659
659
659
660
660
659
660
660
660
660
660
660
660
660
660
660
660
660
660
660
659
659
659
659
660
659
659
660
660
659
659
659
660
660
660
660
659
660
660
660
660
660
660
660
660
660
660
660
660
660
660
660
660
660
659
660
659
659
658
658
658
658
657
657
657
657
657
656
657
655
655
654
654
653
653
653
653
653
653
652
650
647
641
634
625
616
606
595
582
569
555
541
525
510
495
482
469
458
449
441
435
429
424
419
414
408
403
398
394
392
391
391
392
393
395
397
399
402
403
404
403
402
398
394
388
380
371
360
345
328
308
286
260
231
197
157
112
67
20
0
0
0
0
0
0
0
0
0
0
0
0
0
0
0
0
0
0
0
0
0
0
0
0
0
0
0
0
0
0
0
0
0
0
0
0
0
0
0
0
0
0
0
0
0
0
0
0
0
0
0
0
0
0
0
0
0
0
0
0
0
4
8
12
16
20
23
26
29
32
35
39
42
46
49
52
56
58
61
64
67
71
74
78
82
87
93
100
108
117
126
136
145
155
166
177
189
203
217
233
248
262
276
289
300
312
323
334
345
355
366
377
387
398
407
416
423
431
437
443
448
453
457
461
465
470
476
483
491
502
513
526
539
554
569
583
597
611
624
637
649
655
656
656
656
657
657
657
657
657
657
657
657
657
657
657
657
657
657
657
657
658
657
658
657
658
658
658
657
658
657
658
658
658
658
658
658
658
658
658
658
657
657
657
657
656
655
653
650
644
636
624
609
592
573
552
529
507
485
465
445
428
412
399
387
377
370
364
360
358
358
360
364
369
374
380
386
393
400
407
415
422
428
430
430
427
421
412
401
387
371
353
334
315
296
278
262
246
232
220
208
198
189
181
174
168
163
159
157
157
159
163
169
176
182
190
197
204
211
217
224
230
235
239
242
244
245
245
244
242
238
232
227
220
212
203
193
183
174
165
158
153
149
148
147
149
152
156
161
168
175
184
193
201
211
221
231
241
250
258
266
273
279
284
287
288
287
284
279
274
267
260
252
244
235
226
217
209
201
193
187
183
181
181
183
187
191
197
203
209
216
222
227
231
233
235
235
235
233
229
222
214
205
197
191
187
184
180
176
172
164
157
148
138
127
117
107
97
90
84
79
76
73
72
73
74
75
75
78
80
83
86
88
89
89
88
87
86
85
83
82
78
75
69
62
53
44
33
21
8
0
0
0
0
0
0
0
0
0
0
0
0
0
0
0
0
0
0
0
0
0
0
0
0
0
0
0
0
0
0
0
0
0
0
0
0
0
0
0
0
0
0
0
0
0
0
0
0
0
0
0
0
0
0
0
0
0
0
0
0
0
0
0
0
0
0
0
0
0
0
0
0
0
0
0
0
0
0
0
0
0
0
0
0
0
0
0
0
0
0
0
0
0
0
0
0
0
0
0
0
0
0
0
0
0
0
0
0
0
0
0
0
0
0
0
0
0
0
0
0
0
0
0
0
0
0
0
0
0
0
0
0
0
0
0
0
0
0
0
0
0
0
0
0
0
0
0
0
0
0
0
0
0
0
0
0
0
0
0
0
0
0
0
0
0
0
0
0
0
0
0
0
0
0
0
0
0
0
9
19
30
43
56
69
81
94
105
116
128
139
149
158
164
169
173
175
176
176
174
170
167
163
160
156
152
147
142
137
132
127
123
120
117
116
117
119
123
128
134
141
150
160
172
185
198
211
225
237
248
258
268
276
285
292
299
304
307
309
309
307
303
298
292
285
277
269
261
253
246
240
234
228
223
218
215
214
214
216
219
224
231
240
250
261
273
284
296
307
317
327
336
342
348
353
356
357
356
353
348
341
333
323
312
301
291
281
272
265
258
253
249
247
247
250
253
259
266
275
286
298
311
326
339
353
367
379
390
400
407
415
421
426
430
431
431
429
426
420
414
406
398
388
378
366
354
342
330
320
310
303
297
293
290
290
290
293
296
302
309
315
323
330
338
345
352
357
361
363
364
364
363
360
357
353
347
342
336
329
323
318
312
305
298
290
283
274
267
259
254
250
247
246
247
249
253
258
262
267
272
276
281
287
293
299
304
309
315
319
324
327
329
330
329
327
325
320
314
305
294
282
271
259
247
238
229
222
216
210
204
199
193
189
188
188
190
193
197
202
208
214
220
226
233
240
248
257
266
275
283
291
297
302
305
305
302
297
289
278
265
250
234
218
201
185
170
156
143
132
122
113
105
98
92
88
86
87
89
91
96
101
107
114
122
132
142
153
164
175
185
194
202
207
210
210
208
203
196
187
176
164
151
137
124
110
98
85
75
64
56
48
41
36
32
29
28
27
28
29
31
34
38
43
48
54
60
67
74
81
89
97
104
112
118
125
129
133
134
133
128
122
114
105
94
83
72
61
51
41
33
26
18
11
4
0
0
0
0
0
0
0
0
5
11
17
24
28
33
37
39
40
40
40
37
36
33
31
28
24
18
12
4
0
0
0
0
0
0
0
0
0
0
0
0
0
0
0
0
0
0
0
0
0
0
0
0
0
0
0
0
0
0
0
0
0
0
0
0
0
0
0
0
0
0
0
0
0
0
0
0
0
0
0
0
0
0
0
0
0
0
0
0
0
0
0
0
0
0
0
0
0
0
0
0
0
0
0
0
0
0
0
0
0
0
0
0
0
0
0
0
0
0
0
0
0
0
0
0
0
0
0
0
0
0
0
0
0
0
0
0
0
0
0
0
0
0
0
0
0
0
0
0
0
0
0
0
0
0
0
0
0
0
0
0
0
0
0
0
0
0
0
0
0
0
0
0
0
0
0
0
0
0
0
0
0
0
0
0
0
0
0
0
0
0
0
0
0
0
0
0
0
0
0
0
0
0
0
0
0
2
10
19
30
43
57
71
85
98
111
123
135
146
155
163
170
175
178
180
180
179
177
174
171
167
161
154
146
136
126
115
103
93
83
73
64
54
46
40
37
37
39
45
55
69
85
104
123
143
161
179
194
206
214
220
224
225
225
223
219
215
209
203
196
188
178
167
154
142
129
118
109
102
97
92
90
87
86
87
88
90
93
96
100
103
107
113
120
129
141
154
167
179
188
196
202
206
209
211
213
213
210
206
198
188
175
161
147
133
121
109
97
87
77
69
62
59
58
61
65
72
82
93
105
119
133
147
161
175
188
201
213
224
233
240
244
246
247
247
245
241
235
227
218
208
196
184
172
159
147
134
123
113
105
101
99
100
104
112
121
131
142
153
165
179
193
208
224
238
251
260
267
270
272
271
269
264
258
250
240
228
216
201
188
173
160
148
139
130
122
116
109
105
102
100
99
98
99
101
105
112
121
130
139
149
160
172
186
200
213
224
232
238
240
240
238
233
228
221
215
210
204
197
191
185
181
178
177
177
178
181
184
187
191
194
197
200
202
203
202
199
196
193
191
191
192
194
196
199
204
209
214
220
225
229
232
233
233
230
225
218
209
199
187
174
160
149
137
125
114
103
93
83
75
67
61
57
55
54
55
57
62
67
73
80
87
96
106
116
126
135
143
148
153
156
156
154
151
146
141
135
129
122
115
107
99
91
84
79
75
73
72
74
78
83
90
98
108
120
132
147
163
181
201
223
246
269
293
315
336
355
372
386
398
408
415
420
422
422
420
416
410
403
394
383
371
358
345
331
317
307
298
293
289
288
289
293
299
308
320
334
351
369
389
408
427
446
464
481
499
513
527
538
546
552
555
555
552
546
538
527
515
501
486
470
452
434
416
399
383
369
358
350
346
344
345
348
352
357
364
371
379
387
394
400
405
409
413
415
416
415
413
412
411
411
409
407
403
398
393
386
377
366
354
342
329
316
303
289
276
262
249
238
228
221
214
208
205
202
201
201
201
203
205
208
213
218
224
230
237
242
246
249
250
250
248
245
241
235
228
219
208
197
182
168
153
138
122
108
94
81
70
61
53
46
41
37
34
31
29
27
28
31
39
49
63
78
93
109
124
138
150
159
166
172
172
170
162
152
138
121
100
78
52
26
0
0
0
0
0
0
0
0
0
0
0
0
0
0
0
0
0
0
0
0
0
0
0
0
0
0
0
0
0
0
0
0
0
0
0
0
0
0
0
0
0
0
0
0
0
0
0
0
0
0
0
0
0
0
0
0
0
0
0
0
0
0
0
0
0
0
0
0
0
0
0
0
0
0
0
0
0
0
0
0
0
0
0
0
0
0
0
0
0
0
0
0
0
0
0
0
0
0
0
0
0
0
0
0
0
0
0
0
0
0
0
0
0
0
0
0
0
0
0
0
0
0
0
0
0
0
0
0
0
0
0
0
0
0
0
0
0
0
0
0
0
0
0
0
0
0
0
0
0
0
0
0
0
0
0
0
0
0
0
0
0
0
0
0
0
0
0
0
0
0
0
0
0
0
0
0
0
0
0
0
0
0
0
0
0
0
0
0
0
0
0
0
0
0
0
0
0
0
0
0
0
0
0
0
0
0
0
0
0
0
0
0
0
0
0
0
0
0
0
0
0
0
0
8
18
31
44
58
72
85
99
111
123
132
143
152
160
169
175
181
185
188
192
194
197
199
203
206
208
211
214
218
222
229
237
247
258
270
284
299
314
330
346
361
375
388
399
409
417
421
423
421
417
408
396
381
363
344
324
304
286
269
253
239
228
221
217
217
222
231
242
256
272
289
307
326
346
366
386
405
422
438
453
466
477
485
492
495
495
492
486
477
466
452
437
420
400
381
361
341
322
304
286
271
256
244
233
224
216
209
205
202
202
204
207
213
222
234
248
265
284
304
323
341
359
374
388
401
412
422
429
435
438
441
443
444
444
442
438
433
427
420
413
406
399
393
388
384
381
379
378
377
378
379
383
388
396
405
415
425
435
445
455
465
475
483
492
499
505
510
512
513
512
509
503
497
490
481
471
459
445
431
416
403
390
378
366
356
346
339
332
328
325
327
331
338
348
359
372
384
397
408
418
425
429
431
430
428
426
424
422
420
415
409
403
396
389
381
374
367
360
353
347
341
336
332
330
330
330
331
332
334
338
343
350
358
367
377
388
400
413
425
438
450
463
473
484
493
501
509
516
522
529
536
541
544
543
538
530
519
507
496
485
474
464
455
445
436
427
419
412
406
402
399
399
401
404
410
415
420
425
430
434
438
442
446
450
455
460
464
468
470
471
471
468
464
457
451
444
438
432
426
419
411
404
398
392
387
383
379
377
377
378
381
386
391
397
403
409
415
420
427
433
440
446
451
456
460
463
465
465
464
461
456
450
442
434
427
419
412
405
399
393
387
381
377
374
371
369
368
365
363
362
361
360
361
363
366
370
374
377
380
380
379
377
373
367
359
350
339
327
313
297
280
261
240
218
193
167
139
108
77
45
11
0
0
0
0
0
0
0
0
0
0
0
0
0
0
0
0
0
0
0
0
0
0
0
0
0
0
0
0
0
0
0
0
0
0
0
0
0
0
0
0
0
0
0
0
0
0
0
0
0
0
0
0
0
0
0
0
0
0
0
0
0
0
0
18
38
62
90
121
156
190
223
252
276
294
307
316
319
320
317
311
301
289
275
258
240
223
205
189
174
161
150
142
136
132
129
127
126
125
123
122
119
114
109
104
98
91
84
74
63
50
36
20
2
0
0
0
0
0
0
0
0
0
0
0
0
0
0
0
0
0
0
0
0
0
0
0
0
0
0
0
0
0
0
0
0
0
0
0
0
0
0
0
0
0
0
0
0
0
0
0
0
0
0
0
0
0
0
0
0
0
0
0
0
0
0
0
0
0
0
0
0
0
0
0
0
0
0
0
0
0
0
0
0
0
0
0
0
0
0
0
0
0
0
0
0
0
0
0
0
0
0
0
0
0
0
0
0
0
0
0
0
0
0
0
0
0
0
0
0
0
0
0
0
0
0
0
0
0
0
0
0
0
0
0
0
0
0
0
0
0
0
0
0
0
0
0
0
0
0
0
0
0
0
0
0
0
0
0
0
0
0
0
0
0
0
0
0
0
0
0
0
0
0
0
0
0
0
0
0
0
0
0
0
0
0
0
0
0
0
0
0
0
0
0
0
0
0
0
0
0
0
0
0
0
0
0
0
0
0
0
0
0
0
0
0
0
0
0
0
0
0
0
0
0
0
0
0
0
0
0
0
0
0
0
0
0
0
0
0
0
0
0
0
0
0
0
0
0
0
0
0
0
0
0
0
0
0
0
0
0
0
8
55
116
191
276
369
468
572
657
660
661
661
661
661
661
661
661
661
662
662
662
662
662
662
662
662
662
662
662
662
662
662
662
662
661
662
661
661
661
661
661
661
661
661
661
661
661
661
661
661
661
661
661
662
661
661
661
661
662
662
662
662
662
662
662
662
662
662
662
662
662
662
662
662
662
662
661
661
661
661
661
661
661
661
661
661
661
661
661
661
661
661
661
661
661
661
662
661
662
662
662
662
662
662
662
662
662
662
662
662
662
662
661
661
662
661
661
661
661
661
661
661
661
661
661
661
661
661
661
661
661
661
661
661
661
662
661
662
661
662
662
662
662
662
662
662
662
662
662
661
662
662
661
661
661
661
661
661
661
661
661
661
661
661
661
661
661
661
661
661
661
661
661
661
661
661
662
662
662
662
662
662
662
662
662
662
662
662
662
662
662
662
662
661
661
661
661
661
661
661
661
661
661
661
661
661
661
661
661
661
661
661
661
661
662
661
662
662
662
662
662
662
662
662
662
662
662
662
662
662
662
661
662
662
661
661
661
661
661
661
661
661
661
661
661
661
661
661
661
661
661
661
661
661
661
661
661
662
662
662
662
662
662
662
662
662
662
662
662
662
662
662
662
661
661
661
661
661
661
661
661
661
661
661
661
661
661
661
661
661
661
661
661
662
662
662
662
662
662
662
662
662
662
662
662
662
662
662
662
662
662
662
662
661
662
661
661
661
661
661
661
661
661
661
661
661
661
661
661
662
661
662
661
661
662
662
662
662
662
662
662
662
662
662
662
662
662
662
662
662
662
662
661
662
661
661
662
661
661
661
661
661
661
661
661
661
661
662
661
661
661
661
661
661
662
662
662
662
662
662
662
662
662
662
662
662
662
662
662
662
662
662
662
661
661
661
661
662
661
661
661
662
661
661
661
661
661
661
661
661
662
661
661
661
661
661
662
662
662
662
662
662
662
662
662
662
662
662
662
662
662
661
662
661
661
661
661
661
661
661
661
662
661
661
661
661
661
661
661
661
661
661
661
661
662
661
662
662
662
662
662
662
662
662
662
662
662
662
662
662
662
662
662
662
661
661
661
662
661
661
661
661
661
661
661
661
661
661
661
661
661
661
661
661
662
662
661
661
662
662
662
662
662
662
662
662
662
662
662
662
662
661
662
662
661
662
661
661
661
661
661
661
661
661
661
661
661
661
661
661
661
661
661
661
661
661
662
662
662
662
662
662
662
662
663
662
662
662
662
662
662
662
661
661
661
662
661
661
661
661
661
661
661
661
661
661
661
661
661
661
661
661
661
661
661
661
662
661
661
662
662
662
662
662
662
662
662
662
662
662
662
662
661
661
661
661
661
661
661
661
661
661
661
661
661
661
661
661
661
661
661
661
661
661
661
661
661
662
662
662
662
662
662
662
662
662
662
662
662
662
662
661
662
662
661
661
661
661
661
661
661
661
661
661
661
661
661
661
661
661
661
661
661
661
661
661
661
661
662
662
662
662
662
662
662
662
662
662
662
662
661
661
661
661
661
661
661
660
660
660
660
660
660
659
659
659
659
658
658
657
656
654
648
636
621
603
583
562
540
519
497
476
455
435
418
400
385
371
359
348
339
331
324
318
314
310
308
307
306
305
306
307
308
309
312
313
316
318
320
322
324
327
329
331
332
334
335
336
337
338
339
339
340
340
340
341
341
341
341
340
340
340
340
339
339
339
339
339
339
339
338
338
338
338
338
337
337
337
337
337
337
337
337
337
337
337
338
337
337
337
337
337
337
337
337
337
337
337
337
337
337
337
337
337
338
338
338
339
339
339
340
340
340
340
340
340
340
340
340
340
340
340
340
340
340
340
340
340
340
340
340
340
340
340
340
340
340
340
340
340
340
340
339
339
339
339
339
339
339
339
340
340
340
341
342
343
345
347
348
350
351
352
354
355
356
356
357
358
359
359
359
359
360
359
359
358
358
358
358
358
359
360
361
362
363
364
365
366
366
367
367
368
367
367
366
365
364
361
359
357
355
351
348
346
343
340
337
336
334
332
331
330
328
327
325
321
315
309
302
293
282
269
254
237
219
199
179
157
135
112
88
63
38
13
0
0
0
0
0
0
0
0
0
0
0
0
0
0
0
0
0
0
0
0
0
0
0
0
0
0
0
0
0
0
0
0
0
0
0
0
0
0
0
0
0
0
0
0
0
0
0
0
0
0
0
0
0
0
0
0
0
0
0
0
0
0
0
0
0
0
0
0
0
0
0
0
0
0
0
0
0
0
0
0
0
0
0
0
0
0
0
0
0
0
0
0
0
0
0
0
0
0
0
0
0
0
0
0
0
0
0
0
0
0
0
0
0
0
0
0
0
0
0
0
0
0
0
0
0
0
0
0
0
0
0
0
0
0
0
0
0
0
0
0
0
0
0
0
0
0
4
18
35
54
75
96
118
141
164
186
208
229
249
268
285
301
315
327
338
347
354
360
365
368
370
371
371
371
369
367
365
362
359
357
354
351
348
346
344
342
340
338
337
335
334
333
332
331
330
330
329
329
329
329
329
329
329
329
329
329
329
329
330
330
330
330
330
331
331
331
331
331
332
331
332
332
332
332
332
333
333
333
333
333
333
333
333
333
333
333
333
333
333
332
332
332
332
331
331
330
330
329
328
327
326
325
324
323
321
319
315
312
310
308
307
306
307
307
308
309
311
313
315
316
318
320
322
323
325
326
328
330
331
333
334
335
336
336
337
337
337
337
337
337
337
337
337
337
337
337
337
337
338
338
338
338
339
339
339
340
340
340
341
341
341
341
341
342
342
343
343
344
345
345
346
346
346
346
345
345
344
344
343
343
342
341
340
340
339
338
337
337
336
335
334
333
331
329
327
325
322
320
319
318
317
316
316
316
316
317
318
318
319
320
321
322
323
323
324
324
325
325
326
326
328
329
332
336
341
348
357
368
382
400
423
452
487
530
579
634
659
660
660
661
661
661
661
661
661
661
661
661
661
661
661
661
661
661
661
661
661
661
662
661
662
661
662
662
662
662
662
662
662
662
662
662
662
662
662
662
661
662
662
661
661
661
661
661
661
661
661
661
661
661
661
661
661
661
661
661
661
661
661
660
657
622
550
458
353
234
108
0
0
0
0
0
0
0
0
0
0
0
0
0
0
0
0
0
0
0
0
0
0
0
0
0
0
0
0
0
0
0
0
0
0
0
0
0
0
0
0
0
0
0
0
0
0
0
0
0
0
0
0
0
0
0
0
0
0
0
0
0
0
0
0
0
0
0
0
0
0
0
0
0
0
0
0
0
0
0
0
0
0
0
0
0
0
0
0
0
0
0
0
0
0
0
0
0
0
0
0
0
0
0
0
0
0
0
0
0
0
0
0
0
0
0
0
0
0
0
0
0
0
0
0
0
0
0
0
0
0
0
0
0
0
0
0
0
0
0
0
0
0
0
0
0
0
0
0
0
0
0
0
0
0
0
0
0
0
0
0
0
0
0
0
0
0
0
0
0
0
0
0
0
0
0
0
0
0
0
0
0
0
0
0
0
0
0
0
0
0
0
0
0
0
0
0
0
0
0
0
0
0
0
0
0
0
0
0
0
0
0
0
0
0
0
0
0
0
0
0
0
0
0
0
0
0
0
0
0
0
0
0
0
0
0
0
0
0
0
0
0
0
0
0
0
0
0
0
0
0
0
0
0
0
0
0
0
0
0
0
0
0
0
0
0
0
0
3
16
33
52
73
95
118
141
163
186
208
228
248
266
282
297
310
322
332
341
349
355
359
363
365
367
368
368
368
366
365
363
361
359
356
354
352
350
347
345
343
341
339
337
336
334
333
332
331
331
330
329
329
328
329
328
328
328
328
328
329
329
329
329
329
330
330
330
331
331
331
332
332
332
333
333
333
333
333
333
333
333
333
333
333
333
333
333
333
333
333
333
332
332
332
332
332
332
332
332
332
332
332
332
332
332
332
333
333
333
334
334
334
334
334
334
334
334
334
334
334
334
334
334
334
333
334
333
333
333
333
333
332
332
332
332
332
332
332
332
332
333
333
333
333
333
334
334
334
334
334
334
334
334
334
334
334
334
334
335
335
335
335
335
335
335
335
335
334
334
334
334
335
334
334
334
335
335
335
335
335
335
334
334
334
334
335
335
335
335
335
335
335
335
335
336
335
335
336
335
336
335
335
335
334
334
334
334
334
334
333
333
334
333
333
333
333
333
333
333
333
333
333
333
333
333
333
333
333
333
333
333
333
334
333
333
333
333
334
336
338
340
341
342
342
341
338
333
326
317
307
296
284
271
257
243
229
215
201
188
175
162
152
142
134
127
123
122
123
127
132
139
146
155
163
170
178
184
190
195
199
204
208
213
217
218
219
218
216
211
206
198
189
178
166
152
137
122
107
92
78
65
53
43
34
26
20
16
14
13
15
17
22
27
32
38
43
48
52
56
58
60
61
60
57
51
43
33
21
7
0
0
0
0
0
0
0
0
0
0
0
0
0
0
0
0
0
0
0
0
0
0
0
0
0
0
0
0
0
0
0
0
0
0
0
0
0
0
0
0
0
0
0
0
0
0
0
0
0
0
0
0
0
0
0
0
0
0
0
0
0
0
0
0
0
0
0
0
0
0
0
0
0
0
0
0
0
0
0
0
0
0
0
0
0
0
0
0
0
0
0
0
0
0
0
0
0
0
0
0
0
0
0
0
0
0
0
0
0
0
0
0
0
0
0
0
0
0
0
0
0
0
0
0
0
0
0
0
0
0
0
0
0
0
0
0
0
0
0
0
0
0
0
0
0
0
0
0
0
0
0
0
0
0
0
0
0
0
0
0
0
0
0
0
0
0
0
0
0
0
0
0
0
0
0
0
0
0
0
0
0
0
0
0
0
0
0
0
0
0
0
0
0
0
0
0
0
0
0
0
0
0
0
0
0
0
15
34
57
83
110
138
167
197
226
255
284
311
337
363
388
412
435
458
480
501
521
540
557
572
584
593
599
602
601
597
590
580
567
552
536
517
498
477
456
434
413
391
370
350
330
311
295
281
269
260
253
248
246
245
247
250
254
259
265
272
279
286
294
302
308
314
319
324
325
326
325
322
318
311
302
290
275
259
241
223
205
188
173
158
145
134
125
118
114
112
112
115
120
127
137
148
161
176
191
208
225
243
261
280
299
317
335
351
365
376
385
391
394
395
394
390
385
379
372
363
354
343
334
324
316
309
304
301
299
298
300
304
309
316
325
336
349
364
378
394
408
422
433
443
450
458
464
469
473
477
481
484
487
489
490
491
491
490
490
488
486
484
480
476
473
470
467
465
464
465
468
473
481
490
499
510
521
531
542
552
561
569
576
581
585
587
589
590
589
587
584
579
573
567
560
554
549
544
541
539
539
538
538
538
539
540
542
544
546
550
554
559
563
569
575
582
589
598
607
616
625
634
641
647
651
654
654
654
654
654
653
652
650
647
643
638
631
623
615
607
600
594
589
587
587
590
595
603
613
626
640
652
656
658
658
658
659
659
659
659
660
660
660
660
660
660
660
660
660
660
661
661
661
661
661
661
661
661
661
661
661
661
661
661
661
661
661
661
661
661
661
661
661
661
661
661
661
661
661
661
661
661
661
661
661
661
661
661
661
661
661
661
662
662
662
662
662
662
662
662
662
662
662
662
662
662
661
662
661
661
662
661
661
661
661
661
661
661
661
661
661
661
661
661
661
661
661
661
661
662
661
662
662
662
661
662
662
662
662
662
661
662
662
662
662
662
662
661
661
662
662
661
661
661
661
661
661
661
661
661
661
661
661
661
661
661
661
661
661
661
661
661
662
662
661
662
662
662
662
662
662
662
662
662
662
662
661
661
662
661
661
661
661
661
661
661
661
661
661
661
661
661
661
661
661
661
661
661
661
661
661
661
661
662
661
662
661
662
662
662
662
662
662
661
662
661
662
661
661
661
661
661
661
661
660
660
660
660
660
660
660
660
660
660
660
660
660
660
660
661
661
661
661
661
661
661
661
661
661
661
661
660
660
660
660
660
660
660
660
660
660
660
660
660
660
660
660
660
660
660
661
661
661
661
661
661
661
661
661
662
661
662
661
662
662
661
662
662
662
662
662
662
662
662
662
661
661
661
661
661
661
661
661
661
661
661
662
661
661
661
661
661
661
661
661
661
661
662
661
661
662
662
662
662
662
662
662
662
662
662
662
662
662
662
662
661
661
662
661
661
661
661
661
661
661
661
661
661
661
661
661
661
661
661
661
661
661
661
662
661
661
661
662
662
662
662
662
662
662
662
662
662
662
662
662
661
661
661
661
661
661
661
661
661
661
661
661
661
661
661
661
661
661
661
661
661
662
661
661
661
661
661
661
661
661
661
661
661
661
661
661
661
660
660
660
660
660
659
659
659
658
658
658
657
657
656
655
654
652
649
644
636
627
615
603
587
570
552
532
510
488
465
442
419
398
378
358
340
323
305
287
268
248
228
208
188
168
148
129
111
95
80
67
56
47
40
34
29
26
23
21
21
22
23
25
27
29
30
32
34
36
38
39
40
40
39
36
33
30
25
20
15
10
6
1
0
0
0
0
0
0
0
0
0
0
0
0
0
0
0
0
0
0
0
0
0
0
0
0
0
0
0
0
0
0
0
0
0
0
0
0
0
0
0
0
0
0
0
0
0
0
0
0
0
0
0
0
0
0
0
0
0
0
0
0
0
0
0
0
0
0
0
0
0
0
0
0
0
0
0
0
0
0
0
0
0
0
0
0
0
0
0
0
0
0
0
0
0
0
6
15
25
37
49
60
71
81
90
97
103
108
112
115
116
117
116
114
111
107
102
96
89
82
75
68
60
52
45
39
34
31
29
27
25
22
19
16
13
10
6
3
0
0
0
0
0
0
0
0
0
0
0
0
0
0
0
0
0
0
0
0
0
0
0
0
0
0
0
0
0
0
0
0
0
0
0
0
0
0
0
0
0
0
0
0
0
0
0
0
0
0
0
0
0
0
0
0
0
0
0
0
0
0
0
0
0
0
0
0
0
0
0
0
0
0
0
0
0
0
0
0
0
0
0
0
0
0
0
0
0
0
0
0
0
0
0
0
0
0
0
0
0
0
0
0
0
0
0
0
0
0
0
0
0
0
0
0
0
0
0
0
0
0
0
0
0
0
0
0
0
0
0
0
0
0
0
0
0
0
0
0
0
0
0
0
0
0
0
0
0
0
0
0
0
0
0
0
0
0
0
0
0
0
0
0
0
0
0
0
0
0
0
0
0
0
0
0
0
0
0
0
0
0
0
0
0
0
0
0
0
0
0
0
0
0
0
0
0
0
0
0
0
0
0
0
0
0
0
0
0
0
0
0
0
0
0
0
0
0
0
0
0
0
0
0
0
0
0
0
0
0
0
0
0
0
0
0
0
0
0
0
0
0
0
0
0
0
0
0
0
0
0
0
0
0
0
0
0
0
0
0
0
0
0
0
0
0
0
0
0
0
0
0
0
0
0
0
0
0
0
0
0
0
0
0
0
0
0
0
0
0
0
0
0
0
0
0
0
0
0
0
0
0
0
0
0
0
0
0
0
0
0
0
0
0
0
0
0
0
0
0
0
0
0
0
0
0
0
0
0
0
0
0
0
0
0
0
0
0
0
0
0
0
0
0
0
0
0
0
0
0
0
0
0
0
0
0
0
0
0
0
0
0
0
0
0
0
0
0
0
0
0
0
0
0
0
0
0
0
0
0
0
0
0
0
0
0
0
0
0
0
0
0
0
0
0
0
0
0
0
0
0
0
0
0
0
0
0
0
0
0
0
0
0
0
0
0
0
0
0
0
0
0
0
0
0
0
0
0
0
0
0
0
0
0
0
0
0
0
0
0
0
0
0
0
0
0
0
0
0
0
0
0
0
0
0
0
0
0
0
0
0
0
0
0
0
0
0
0
0
0
0
0
0
0
0
0
0
0
0
0
0
0
0
0
0
0
0
0
0
0
0
0
0
0
0
0
0
0
0
0
0
0
0
0
0
0
0
0
0
0
0
0
0
0
0
0
0
0
0
0
0
0
0
0
0
0
0
0
0
0
0
0
0
0
0
0
0
0
0
0
0
0
0
0
0
0
0
0
0
0
0
0
0
0
0
0
0
0
0
0
0
0
0
0
0
0
0
0
0
0
0
0
0
0
0
0
0
0
0
0
0
0
0
0
0
0
0
0
0
0
0
0
0
0
0
0
0
0
0
0
0
0
0
0
0
0
0
0
0
0
0
0
0
0
0
0
0
0
0
0
0
0
0
0
0
0
0
0
0
0
0
0
0
0
0
0
0
0
0
0
0
0
0
0
0
0
0
0
0
0
0
0
0
0
0
0
0
0
0
0
0
0
0
0
0
0
0
0
0
0
0
0
0
0
0
0
0
0
0
0
0
0
0
0
0
0
0
0
0
0
0
0
0
0
0
0
0
0
0
0
0
0
0
0
0
0
0
0
0
0
0
0
0
0
0
0
0
0
0
0
0
0
0
0
0
0
0
0
0
0
0
0
0
0
0
0
0
0
0
0
0
0
0
0
0
0
0
0
0
0
0
0
0
0
0
0
0
0
0
0
0
0
0
0
0
0
0
0
0
0
0
0
0
0
0
0
0
0
0
0
0
0
0
0
0
0
0
0
0
0
0
0
0
0
0
0
0
0
0
0
0
0
0
0
0
0
0
0
0
0
0
0
0
0
0
0
0
0
0
0
0
0
0
0
0
0
0
0
0
0
0
0
0
0
0
0
0
0
0
0
0
0
0
0
0
0
0
0
0
0
0
0
0
0
0
0
0
0
0
0
0
0
0
0
0
0
0
0
0
0
0
0
0
0
0
0
0
0
0
0
0
0
0
0
0
0
0
0
0
0
0
0
0
0
0
0
0
0
0
0
0
0
0
0
0
0
0
0
0
0
0
0
0
0
0
0
0
0
0
0
0
0
0
0
0
0
0
0
0
0
0
0
0
0
0
0
0
0
0
0
0
0
0
0
0
0
0
0
0
0
0
0
0
0
0
0
0
0
0
0
0
0
0
3
11
21
32
45
58
73
89
107
127
148
169
188
206
221
235
246
256
265
271
276
278
279
277
272
264
254
241
227
209
191
171
150
129
108
88
69
51
36
24
15
9
6
7
11
20
32
48
68
90
112
135
157
180
202
224
245
264
281
297
310
321
330
336
340
340
338
333
327
318
308
295
281
268
254
240
227
213
199
186
174
162
152
143
137
134
136
142
152
165
180
198
218
239
261
281
299
316
331
342
350
353
352
348
340
328
314
298
280
262
243
225
208
190
172
154
138
123
111
102
95
91
90
92
95
101
107
116
126
138
152
167
185
203
222
240
258
276
290
303
314
322
327
329
329
325
318
308
296
282
266
249
232
215
199
183
166
151
136
124
112
104
98
95
93
95
98
105
115
129
146
166
189
214
239
265
288
307
322
333
340
343
343
339
333
323
312
297
281
263
244
223
203
184
166
150
136
124
114
107
100
98
98
101
109
120
135
151
169
190
209
230
250
269
286
303
317
331
344
355
363
370
373
374
372
368
362
353
343
332
319
306
292
277
262
247
233
221
211
203
199
195
194
194
197
203
211
223
237
255
274
295
317
339
361
381
399
415
428
439
447
452
454
454
452
448
441
433
424
414
402
390
378
366
354
343
333
325
318
313
311
311
314
318
324
331
339
348
357
367
378
389
401
415
429
443
457
468
479
487
493
497
499
499
497
494
490
484
476
466
454
442
430
417
405
392
381
369
359
351
347
345
346
350
356
364
375
389
404
421
438
456
474
492
509
525
539
552
564
574
583
590
595
597
597
594
587
577
563
546
526
505
484
461
439
417
397
379
363
350
340
333
330
330
333
338
346
357
369
383
399
417
436
457
478
500
520
540
556
570
580
588
591
592
590
585
578
570
560
548
534
519
505
490
477
464
453
443
435
427
420
415
412
411
414
419
427
438
452
468
487
506
525
544
562
579
596
611
624
634
640
643
643
639
633
624
612
598
583
567
551
535
519
503
490
477
468
461
457
457
459
462
468
475
484
495
505
517
530
543
558
575
591
608
623
638
650
655
656
657
657
657
657
656
655
654
653
650
643
634
622
610
597
583
568
554
540
526
514
504
497
492
490
490
493
499
508
521
534
548
562
575
590
605
621
636
650
656
657
658
658
658
658
658
657
657
657
657
656
656
655
655
654
652
649
646
642
639
637
637
638
641
645
649
651
652
653
654
655
655
656
657
657
658
659
659
659
659
660
659
660
659
659
659
658
658
657
657
657
656
655
655
654
652
649
643
634
624
614
604
597
591
588
587
588
592
597
605
616
628
640
652
656
658
658
658
659
659
659
659
659
659
658
658
658
657
657
656
655
654
653
650
645
637
628
619
609
599
591
583
576
572
569
568
569
575
582
594
608
625
642
655
658
658
659
659
659
659
659
659
659
658
658
657
657
656
655
652
647
638
627
614
599
583
566
549
532
515
500
486
474
464
456
449
444
442
441
441
444
447
452
456
462
467
474
481
487
493
497
500
501
500
498
494
489
481
474
465
456
445
434
422
411
400
390
380
372
364
359
355
354
356
361
369
379
392
408
425
444
463
485
506
527
549
569
589
608
624
638
649
656
656
657
656
656
655
655
654
652
647
640
631
621
608
593
577
559
542
526
511
498
488
481
476
473
474
477
484
493
505
517
531
545
558
571
581
589
593
595
593
588
582
573
561
549
534
519
503
488
474
460
448
437
427
417
407
398
391
385
382
382
383
386
391
397
404
414
425
438
454
472
490
507
523
538
551
563
574
584
592
597
600
601
599
594
588
580
569
555
540
524
507
491
477
464
452
442
435
431
429
430
434
440
448
458
470
482
495
509
524
539
553
567
580
594
606
616
624
631
636
639
639
638
635
628
621
612
602
589
574
558
543
527
511
496
480
467
454
443
433
424
417
413
410
410
412
417
425
436
449
463
480
498
515
533
552
568
584
597
607
615
619
622
623
622
619
612
601
586
569
550
531
511
492
472
453
435
419
405
395
388
384
383
384
390
398
410
424
441
461
480
500
519
537
553
567
579
589
597
603
607
611
612
611
607
600
590
577
563
546
530
514
499
485
473
462
453
446
440
435
431
429
429
430
433
438
445
452
461
470
479
490
501
515
529
545
562
579
594
607
616
622
623
620
613
603
590
574
557
539
521
502
485
471
461
452
445
439
433
428
423
418
416
415
417
422
428
437
449
463
480
497
516
535
555
574
591
608
621
631
638
641
640
635
627
616
602
586
567
547
525
503
481
460
440
421
403
386
373
362
356
354
357
363
372
384
398
414
430
449
467
486
504
521
536
552
567
581
593
603
609
612
612
608
602
593
583
571
557
543
527
510
493
474
454
434
414
394
377
362
350
341
336
334
336
342
350
362
374
389
403
419
435
450
465
480
492
503
510
515
518
517
515
510
503
493
481
467
453
437
420
403
386
370
354
339
326
314
303
294
287
283
282
283
288
295
304
315
328
344
362
380
399
418
436
452
466
476
483
488
491
491
491
489
485
480
474
466
456
446
435
422
409
396
383
372
362
354
350
349
351
356
364
377
393
412
430
448
464
477
490
500
511
521
531
539
546
552
555
556
554
550
544
534
523
510
497
484
471
456
440
424
408
392
378
366
356
348
344
343
344
349
356
365
376
389
403
418
435
453
472
491
510
529
547
564
579
592
604
613
618
620
618
612
602
589
574
557
538
518
498
478
459
441
425
410
396
385
374
365
359
356
356
359
365
372
383
394
406
420
434
450
466
481
497
513
527
541
553
563
572
578
583
586
587
587
585
581
576
570
563
555
546
536
525
513
501
489
478
467
459
453
451
452
457
464
474
486
499
512
524
537
550
563
576
590
603
616
629
640
648
653
654
655
654
654
653
652
650
646
639
629
615
598
579
560
542
525
513
504
499
499
503
512
524
540
558
578
600
624
646
657
658
659
660
659
660
660
660
660
659
659
659
659
658
658
658
657
656
655
653
649
644
636
629
621
615
609
606
604
604
608
613
621
631
642
652
656
658
658
659
659
660
660
660
660
660
660
660
660
660
660
660
660
660
660
660
660
660
660
660
660
660
660
660
660
660
660
660
660
661
660
661
661
661
661
661
661
661
661
662
662
662
662
662
661
662
662
662
661
661
661
661
662
661
661
661
661
661
661
661
661
661
661
661
661
661
661
661
661
661
661
661
661
662
662
661
662
662
662
662
662
662
662
662
662
662
662
662
662
662
662
661
661
661
661
661
661
661
661
661
661
661
661
661
661
661
661
661
661
661
661
661
661
661
661
662
662
662
662
662
662
662
662
662
662
662
662
662
662
662
662
662
661
661
661
661
661
661
661
661
661
661
661
661
661
661
661
661
661
661
661
661
661
662
662
662
662
662
662
662
662
662
662
662
662
662
662
662
662
662
661
662
661
661
661
661
661
661
661
661
661
661
661
661
661
661
661
661
661
661
661
661
661
661
661
662
662
662
662
662
662
662
662
662
662
662
662
662
662
662
662
662
661
661
661
661
661
661
661
661
661
661
661
661
661
661
661
661
661
661
661
661
662
661
662
662
662
662
662
662
662
662
662
662
662
662
662
662
662
662
661
661
661
661
661
661
661
661
661
661
661
661
661
661
661
661
661
661
661
661
662
661
662
662
662
662
662
662
662
662
662
662
662
662
662
662
662
662
662
661
661
661
661
661
661
661
661
661
661
661
661
661
661
661
661
661
661
661
661
661
661
661
661
662
662
661
661
662
662
662
662
662
662
662
662
662
662
662
662
661
661
661
661
661
661
661
661
661
661
661
661
661
661
661
661
661
661
661
662
661
661
662
661
662
661
662
662
662
662
662
662
662
662
662
662
662
662
662
662
662
661
661
661
661
661
661
661
661
661
661
661
661
661
661
661
661
661
661
661
661
661
662
661
662
662
662
662
662
662
662
662
662
662
662
662
662
662
662
662
661
661
661
661
661
661
661
661
661
661
661
661
661
661
661
661
661
661
661
661
661
661
661
661
662
661
661
661
661
661
662
661
662
661
662
662
661
661
661
661
661
661
661
661
660
661
661
660
660
660
660
660
660
660
660
660
660
660
660
660
659
659
660
660
660
659
659
659
659
659
659
659
659
659
658
658
658
657
656
654
651
643
632
619
603
585
565
543
521
498
475
452
430
409
389
371
357
345
334
325
317
309
302
294
287
280
273
266
260
254
250
245
241
238
236
233
230
225
219
212
203
193
181
167
153
136
119
100
79
56
33
8
0
0
0
0
0
0
0
0
0
0
0
0
0
0
0
0
0
0
0
0
0
0
0
0
0
0
0
0
0
0
0
0
0
0
0
0
0
0
0
0
0
0
0
0
0
0
0
0
0
0
0
0
0
0
0
0
0
0
0
0
0
0
0
0
0
0
0
0
0
0
0
0
0
0
0
0
0
0
0
0
0
0
0
0
0
0
0
0
0
0
0
0
4
11
19
28
37
46
58
69
81
94
106
117
125
133
140
147
154
160
166
171
174
177
179
180
181
180
179
177
175
172
169
165
163
160
159
159
160
164
168
174
182
192
202
212
222
233
243
255
266
278
289
301
311
322
330
337
342
345
346
345
343
338
333
325
319
311
304
298
293
288
284
279
274
269
265
262
260
260
261
264
268
274
281
291
302
315
328
340
353
364
376
388
398
408
418
426
434
441
448
453
458
462
466
467
467
465
463
461
460
459
459
460
462
466
471
477
483
490
497
505
511
518
525
534
543
553
563
572
581
588
595
600
605
609
612
615
617
618
618
618
616
612
607
601
593
583
573
562
550
540
530
522
514
507
501
496
492
489
487
487
488
491
495
501
507
514
521
529
536
544
550
555
558
559
558
556
553
547
540
531
521
509
497
485
473
461
450
438
427
416
405
394
384
372
361
350
340
332
324
318
314
310
310
311
314
319
325
334
341
349
355
359
363
365
365
363
359
353
346
336
326
315
303
289
276
261
247
232
218
205
193
183
173
165
158
153
149
147
147
148
152
155
161
166
171
175
178
182
184
186
188
190
192
193
195
197
198
199
199
196
194
190
185
179
172
166
159
152
144
138
132
127
124
120
117
113
110
107
104
101
99
97
96
95
96
97
99
102
104
105
107
107
108
108
107
105
102
97
92
85
78
69
60
51
40
30
18
7
0
0
0
0
0
0
0
0
0
0
0
0
0
0
0
0
0
0
0
2
6
10
15
19
25
31
37
44
50
55
60
64
66
68
69
69
68
67
66
64
64
63
64
64
67
69
72
76
81
87
95
103
112
122
132
143
154
164
174
184
192
200
207
213
218
222
225
228
229
230
229
228
226
222
218
212
205
197
188
179
170
160
151
143
135
127
120
114
110
107
105
105
108
112
118
125
131
139
146
154
162
170
176
181
184
185
184
183
180
178
174
169
164
158
152
146
140
133
128
122
118
114
110
107
104
102
102
103
105
109
114
120
127
135
143
151
159
168
176
183
190
197
203
209
212
215
216
217
216
214
211
205
199
190
181
171
160
149
138
125
112
98
85
71
59
48
38
29
23
18
15
14
15
18
23
29
37
46
57
69
82
96
110
126
142
159
175
192
208
223
236
247
255
261
264
266
266
265
262
259
256
250
245
238
232
226
219
213
208
206
205
206
208
211
216
223
230
237
244
252
259
268
276
284
291
297
302
304
305
304
301
295
287
277
265
251
237
223
209
196
184
173
164
157
150
145
142
139
138
139
141
144
148
155
162
170
178
188
197
207
217
228
239
250
260
270
278
285
291
295
297
298
296
293
289
284
277
269
260
250
240
230
222
214
208
204
200
198
196
196
196
199
201
207
211
218
226
233
241
249
257
263
270
276
281
285
288
291
292
293
293
291
288
283
276
269
260
250
240
230
220
209
200
192
184
177
171
166
164
162
160
161
162
165
171
176
184
191
200
209
219
227
236
244
250
255
259
261
262
261
259
255
251
245
239
232
224
215
207
198
190
182
175
170
166
162
159
156
153
151
150
150
152
155
159
165
171
177
184
192
199
208
217
226
234
242
250
255
259
262
263
262
260
257
253
248
243
236
230
223
215
207
200
193
187
183
180
177
176
176
176
177
180
184
190
197
205
213
222
231
240
248
257
266
274
281
287
291
293
293
291
288
283
277
270
262
254
245
236
228
219
212
205
199
195
191
189
187
187
188
190
194
199
205
212
219
228
237
246
255
264
273
280
286
290
293
296
297
297
295
293
289
284
279
271
263
254
246
237
227
218
208
199
190
183
177
173
170
169
169
170
173
177
183
190
197
206
215
225
235
245
255
264
272
280
286
290
293
295
296
295
293
288
284
277
270
262
254
246
239
233
227
223
218
215
212
210
208
208
209
210
213
216
220
226
234
243
252
262
273
283
293
302
311
318
325
331
336
340
342
342
342
340
338
335
330
324
318
310
303
295
288
282
278
274
273
273
274
278
283
288
295
302
311
320
331
343
354
366
377
388
398
406
414
420
426
429
432
432
432
430
427
422
416
409
401
392
383
373
363
354
345
337
331
326
322
320
320
322
324
328
334
339
346
352
359
367
375
383
391
398
406
412
418
423
428
430
432
433
432
431
428
426
421
416
410
403
396
390
383
376
369
363
357
353
350
348
348
349
352
357
363
371
380
390
400
411
421
431
442
451
461
469
476
483
489
494
497
499
499
498
496
494
491
487
483
478
473
467
461
455
450
445
442
439
437
436
436
437
439
442
447
454
461
469
477
486
495
503
512
518
525
530
533
536
538
539
538
537
534
530
523
516
507
497
486
475
463
451
439
427
415
404
394
386
378
371
366
363
361
360
360
361
364
367
372
377
383
388
394
400
405
411
415
419
423
425
427
427
427
425
421
416
410
403
395
386
376
367
358
349
340
332
325
319
314
311
310
311
314
318
323
329
336
342
350
357
365
373
380
387
392
396
398
399
398
396
392
387
381
374
367
360
353
344
335
326
317
308
299
291
283
275
268
262
257
252
248
245
243
241
241
241
242
243
245
248
252
256
261
265
270
275
280
284
288
290
292
293
292
291
288
285
281
276
270
264
256
249
241
234
226
220
215
211
209
207
206
206
207
209
213
217
223
229
236
243
251
260
268
276
284
291
297
302
306
309
310
311
310
308
305
301
297
291
284
276
267
258
249
240
231
223
217
211
207
203
200
198
198
199
202
207
212
219
228
237
247
259
270
282
293
303
311
317
322
325
326
326
324
321
316
311
304
298
290
282
274
266
258
251
244
237
232
228
225
225
225
227
228
232
235
240
245
251
257
263
270
277
284
292
300
307
314
321
326
330
332
333
332
330
326
322
316
310
304
297
290
281
272
264
255
247
240
234
228
225
222
220
220
221
223
227
231
236
242
249
255
263
270
278
285
292
298
303
306
309
309
309
306
303
298
292
285
277
268
260
252
244
237
231
224
219
214
211
209
209
210
212
215
219
224
230
237
245
253
261
268
274
281
287
294
301
306
311
314
315
316
315
313
310
307
302
297
292
286
280
272
266
259
253
246
240
235
231
227
225
225
226
229
234
239
245
253
261
270
279
288
298
306
314
321
327
331
334
336
338
339
338
337
336
334
331
328
324
319
314
307
301
293
286
280
274
269
265
263
261
261
262
263
266
270
274
279
286
292
300
307
315
323
330
338
345
351
356
361
364
366
366
366
364
361
357
351
345
338
331
323
314
306
298
291
284
279
276
273
272
271
273
276
281
287
293
301
308
316
324
331
339
347
354
359
364
368
370
371
371
371
370
368
365
361
357
351
344
336
329
320
312
304
297
290
284
279
274
271
270
270
271
272
275
278
283
288
295
301
308
315
322
330
337
343
349
354
358
362
364
365
365
363
360
357
352
346
341
334
327
319
312
304
297
290
284
279
274
270
267
266
265
265
267
269
273
278
284
291
298
307
315
324
332
340
346
352
357
360
363
364
364
363
360
356
351
344
337
330
322
315
307
300
293
286
281
275
272
269
268
268
269
271
274
278
284
289
296
303
310
318
327
335
342
349
353
357
360
363
364
364
364
361
359
355
350
345
338
331
323
315
306
298
291
283
277
271
266
261
258
257
256
256
257
259
263
268
274
280
286
292
299
304
310
315
321
326
331
334
337
339
340
339
338
336
333
328
323
318
313
307
302
296
291
286
281
276
272
269
267
267
267
269
272
275
279
283
288
293
299
305
312
318
324
331
337
343
348
352
355
357
357
356
354
350
345
338
332
324
315
307
298
290
282
275
268
263
258
255
253
253
255
257
261
265
272
278
285
293
302
311
320
328
337
345
353
361
367
372
377
381
384
387
389
390
391
391
390
389
388
386
384
383
381
381
380
381
381
381
382
384
386
388
391
395
400
405
411
416
421
426
432
437
441
446
449
451
452
452
451
449
446
441
435
428
420
410
400
390
378
366
352
338
323
308
293
279
267
254
243
234
226
222
219
219
221
224
231
237
246
256
266
277
287
298
308
319
327
335
341
347
351
354
356
357
355
353
350
346
340
335
330
324
319
314
311
307
305
303
303
303
304
306
310
314
319
325
332
339
347
356
364
372
380
388
395
401
405
409
411
412
411
408
404
398
391
383
374
365
356
347
338
329
321
314
306
301
296
292
291
289
290
292
295
300
306
314
322
331
341
351
362
371
380
388
395
400
404
406
406
406
405
403
400
397
392
386
380
372
365
357
348
340
333
326
319
312
307
303
300
299
300
303
308
315
323
332
342
352
363
373
382
391
398
405
411
416
420
424
426
428
428
428
426
422
418
413
408
402
396
390
385
380
375
370
367
364
363
361
361
361
361
362
364
367
371
376
382
389
396
404
412
421
429
437
445
452
458
463
467
471
473
473
474
473
471
468
465
462
458
453
449
445
441
437
434
431
428
424
422
419
418
418
419
423
427
432
438
445
452
461
469
477
486
494
501
508
514
518
522
524
525
524
523
519
515
509
503
496
489
482
475
469
464
459
455
453
451
449
448
447
448
449
451
454
459
465
471
479
487
495
503
511
519
526
533
540
545
550
555
558
560
561
560
558
554
548
542
534
526
518
510
501
493
484
476
468
463
459
457
458
460
464
469
475
482
489
496
505
512
520
528
537
545
553
559
564
568
572
573
574
574
572
569
564
560
555
549
543
536
530
523
516
510
504
499
494
490
486
483
481
480
480
482
485
490
496
503
511
519
528
537
545
552
559
565
569
572
575
577
578
578
578
576
575
572
568
564
558
552
544
536
527
519
511
503
497
492
488
485
483
482
482
483
486
490
495
502
509
518
528
539
550
562
573
584
593
602
609
614
618
619
619
617
614
609
604
598
591
583
576
569
562
556
550
545
540
536
534
531
530
530
531
533
537
542
547
554
561
568
575
582
589
596
601
606
610
613
616
617
617
617
615
612
609
605
599
594
588
582
576
569
563
556
550
544
539
534
530
527
525
524
524
526
529
534
540
546
552
558
565
571
577
582
586
589
591
592
592
591
589
586
582
577
571
564
557
550
543
536
529
521
514
507
501
495
489
485
480
478
476
475
474
475
476
479
482
486
491
497
503
510
517
523
528
533
536
539
539
539
536
533
528
523
517
510
503
495
486
477
468
460
452
444
436
430
424
419
415
412
410
410
411
413
416
421
427
435
443
452
460
468
475
481
486
489
491
490
488
485
481
476
471
464
457
450
442
432
423
414
404
395
386
380
373
368
364
360
358
358
358
360
363
368
374
380
387
395
402
410
418
426
433
439
444
447
449
451
451
450
448
444
439
433
427
420
413
404
396
388
380
371
363
356
349
343
337
332
328
325
324
324
325
327
330
335
340
345
352
358
366
373
380
386
393
398
403
407
410
412
412
412
410
408
404
399
394
388
381
374
367
359
352
345
338
332
327
323
321
319
319
319
321
324
327
331
336
342
349
356
363
370
377
384
389
394
398
401
403
402
402
400
396
393
388
383
377
371
364
357
350
342
335
328
322
316
312
308
306
305
305
307
310
315
321
328
336
346
357
369
380
390
399
406
413
417
422
425
426
427
426
423
418
414
407
400
393
386
377
369
361
353
345
338
332
326
322
318
316
315
315
317
319
324
329
335
342
348
356
364
372
380
389
397
404
411
416
420
423
424
424
422
419
416
411
406
400
394
387
380
373
366
359
353
347
342
338
336
334
334
335
337
340
345
351
356
364
371
379
387
394
402
409
415
421
425
429
432
433
435
435
434
433
430
427
423
418
412
405
399
392
385
377
370
363
357
352
348
345
343
343
344
346
349
353
358
366
373
381
390
399
408
417
426
433
441
447
451
455
456
457
456
453
450
445
439
432
424
416
408
399
391
384
377
371
365
361
357
354
353
353
353
355
358
361
367
372
379
385
393
401
409
417
424
431
436
441
444
447
447
447
445
442
436
430
422
413
403
393
383
373
363
354
346
339
332
328
324
322
322
322
323
326
331
337
345
354
364
374
385
397
408
418
427
435
441
446
450
452
454
454
453
452
449
445
439
433
426
418
409
400
390
381
371
363
355
349
345
342
341
341
342
344
347
351
357
364
371
379
387
396
406
415
423
431
437
443
447
450
452
453
452
450
446
440
434
427
418
409
399
389
380
371
362
354
347
341
337
334
333
332
333
336
340
344
349
355
361
368
375
382
389
396
402
407
411
414
416
417
416
415
413
410
406
401
394
386
378
369
360
351
342
334
326
319
313
308
304
302
301
300
301
304
308
312
318
325
333
340
348
356
363
371
379
386
392
397
402
405
408
410
411
410
408
406
402
398
393
387
381
374
367
361
354
347
341
336
331
328
325
324
325
328
333
337
343
350
358
366
374
383
392
401
409
416
421
425
427
428
427
425
422
419
415
409
403
395
388
380
374
366
358
350
343
335
328
321
316
312
310
310
312
316
321
328
336
345
354
364
374
384
393
402
411
418
425
432
437
441
443
445
444
442
439
433
426
417
408
396
384
372
361
350
340
331
324
317
311
306
303
300
299
299
300
303
307
313
319
326
333
341
349
356
363
369
374
378
380
381
381
380
379
375
371
364
358
350
342
333
324
316
307
299
293
287
282
278
274
272
271
270
270
271
275
279
285
292
300
310
320
331
341
352
362
373
382
391
399
406
413
418
422
425
427
429
429
428
426
422
419
416
412
409
406
403
400
397
395
393
390
388
387
385
385
385
386
387
389
391
394
399
403
407
411
415
418
420
421
421
419
416
412
406
399
389
379
366
354
340
326
313
300
287
274
263
252
243
236
231
227
226
227
230
234
240
247
257
266
277
287
298
309
320
331
341
349
357
363
367
369
371
372
371
369
367
363
358
353
348
342
336
331
324
319
314
310
307
304
303
302
303
304
308
311
317
323
330
338
346
355
362
370
377
384
389
394
398
401
403
405
405
405
404
401
398
393
387
381
375
370
365
360
356
353
350
350
349
350
351
352
355
359
364
370
378
385
393
403
411
420
429
437
445
452
459
464
469
474
477
479
480
480
480
478
476
472
468
463
458
452
446
441
436
431
427
424
421
420
419
420
421
422
425
430
435
442
449
458
466
475
483
491
499
506
513
519
524
528
531
534
535
535
533
529
524
518
511
503
495
486
478
469
461
453
446
440
434
430
427
424
423
424
425
428
432
437
443
450
458
466
474
482
489
496
502
508
512
516
519
520
520
517
514
509
504
499
494
489
484
477
470
463
455
447
440
434
429
425
421
420
420
422
425
429
434
441
448
455
464
472
480
488
495
502
508
513
517
520
522
522
522
520
517
512
507
500
493
484
476
467
458
448
440
431
423
416
410
405
402
400
400
401
402
405
408
413
418
424
430
437
444
451
458
465
471
476
481
484
486
486
485
483
480
476
471
465
458
450
441
431
421
411
401
391
382
375
368
363
360
358
357
358
360
364
368
374
381
388
396
405
414
422
430
437
443
448
452
455
457
457
456
453
449
444
438
430
420
410
399
388
376
365
355
346
338
332
326
323
321
321
322
324
328
333
340
347
355
363
373
382
392
402
412
421
429
435
439
441
442
441
440
436
433
428
421
415
407
399
391
383
374
367
359
352
346
341
336
333
332
332
333
336
340
346
353
361
369
377
384
392
400
407
415
421
428
432
437
440
443
444
443
441
438
434
428
422
414
406
398
389
380
372
364
357
351
346
342
340
339
339
342
345
350
356
363
371
378
386
394
401
409
416
424
430
436
441
445
449
451
453
453
452
450
447
443
438
432
425
417
409
401
394
386
379
372
367
362
358
355
354
354
356
359
363
368
374
382
390
399
407
416
424
431
437
443
447
451
454
455
456
456
454
452
449
445
440
433
426
418
410
402
394
387
380
374
370
368
367
367
368
370
374
379
385
391
398
405
411
418
424
430
436
441
446
449
451
452
452
451
449
446
442
437
431
424
416
407
398
388
378
369
359
350
342
334
328
323
319
316
316
316
319
324
328
335
341
349
356
365
374
384
393
401
409
417
422
427
431
433
433
433
431
428
424
419
412
404
396
388
380
372
364
357
352
346
342
340
338
339
340
343
347
353
359
367
375
383
393
401
411
420
428
436
444
450
456
462
465
468
469
469
467
463
458
452
446
438
430
422
415
407
400
393
388
383
380
378
376
376
376
378
381
385
391
398
406
415
424
432
441
449
457
464
470
476
480
483
486
488
488
488
487
484
479
474
467
460
452
444
435
427
419
412
406
400
396
394
392
393
394
396
400
404
409
414
421
428
436
443
451
458
465
473
479
485
490
494
496
498
498
497
496
494
490
486
481
474
465
455
445
434
422
413
404
397
391
387
384
383
383
385
389
394
400
408
417
426
437
448
458
468
478
488
496
503
509
514
518
520
521
520
517
513
508
502
495
487
479
469
460
452
443
435
428
420
413
408
404
401
400
401
402
406
411
416
423
431
440
450
460
471
481
490
499
506
513
517
520
521
520
518
515
511
506
500
493
486
478
469
460
451
443
434
426
418
412
405
401
398
397
396
397
399
402
406
411
416
423
430
437
445
452
459
466
472
478
482
486
488
490
489
487
484
479
473
466
459
451
442
434
426
418
412
406
402
398
394
392
392
392
393
396
400
406
412
419
427
436
445
454
463
472
481
489
496
502
507
510
511
511
510
508
504
501
497
493
488
483
476
470
462
455
449
443
437
433
430
429
429
431
433
438
443
449
456
463
470
478
486
494
502
510
518
525
532
537
542
545
547
548
547
546
542
538
531
525
517
508
500
491
483
474
466
458
450
443
437
432
428
426
426
426
428
431
435
439
444
450
455
461
467
473
479
484
489
493
495
497
496
495
492
488
482
476
468
460
451
442
433
425
417
409
400
393
388
383
380
378
377
377
378
381
385
389
394
398
404
409
414
420
426
431
437
442
447
450
453
456
456
456
455
452
448
443
437
430
423
415
406
397
388
380
372
363
355
349
343
339
336
335
334
334
336
338
342
346
351
356
362
368
374
381
386
391
395
399
402
405
406
407
406
404
400
396
390
383
376
368
359
350
341
332
324
316
310
305
301
299
298
298
300
302
306
311
317
324
331
339
347
355
363
371
377
382
386
389
390
389
387
385
382
378
374
369
363
357
349
341
333
325
316
309
302
295
290
286
283
281
281
282
284
286
290
294
300
306
313
320
327
334
342
348
354
360
365
369
372
374
375
375
373
371
368
364
359
352
345
338
330
322
313
305
298
291
285
279
275
271
268
267
267
268
271
274
279
285
291
298
304
311
318
325
331
337
342
347
351
354
356
356
355
352
348
344
338
332
324
316
308
300
293
286
279
272
268
262
259
256
255
254
255
257
260
265
270
277
283
291
299
306
314
322
331
337
344
350
354
357
359
360
359
356
352
347
341
335
327
320
312
304
296
287
280
273
268
264
261
259
259
261
264
269
276
285
295
305
317
330
343
356
370
383
396
408
420
429
438
444
447
448
445
441
434
425
414
402
389
375
362
349
336
325
314
304
295
289
282
278
275
274
274
276
279
283
289
295
300
305
310
313
315
315
315
315
314
312
310
309
306
303
299
294
289
283
277
270
264
258
252
246
240
236
231
228
225
223
222
222
223
226
230
235
241
248
256
266
275
285
295
305
316
325
335
343
350
356
361
364
365
365
364
361
358
353
347
340
332
324
316
307
298
289
281
273
266
260
256
253
251
251
252
255
259
265
272
280
288
298
308
318
327
336
344
352
358
364
368
370
372
372
371
368
365
359
352
345
337
329
320
311
301
292
283
276
269
264
260
257
256
257
260
264
269
276
283
292
301
310
320
331
340
350
358
366
372
378
382
384
384
383
381
377
372
367
361
355
348
342
335
328
321
313
305
298
291
285
280
276
274
273
274
275
278
281
284
289
294
301
308
316
324
332
339
346
353
358
363
366
368
369
368
367
364
361
357
351
345
338
330
323
315
309
303
298
295
293
291
290
289
290
291
293
298
301
306
313
319
327
335
342
350
357
364
370
376
381
384
387
388
387
384
381
376
370
364
357
348
340
331
323
315
307
300
294
289
285
281
279
278
279
281
284
288
294
300
307
314
322
330
338
347
354
361
368
373
378
381
383
384
383
382
380
376
372
366
359
352
344
335
327
319
312
305
299
295
292
289
288
288
290
292
295
300
304
310
316
324
332
340
348
355
362
368
374
379
383
385
385
384
382
379
375
370
365
359
353
347
340
333
325
318
312
306
301
297
294
293
292
293
294
297
301
306
312
319
327
336
345
354
363
372
381
389
395
400
404
407
409
409
409
407
403
399
394
388
382
375
367
359
352
344
337
330
324
319
315
312
310
310
310
313
316
320
325
332
339
347
356
365
375
384
393
401
408
414
418
421
423
423
422
420
417
412
405
397
389
381
372
364
356
349
343
337
332
327
323
321
320
320
322
325
329
334
341
348
357
366
375
383
390
397
404
409
414
418
420
422
423
423
421
419
416
412
406
400
394
387
380
372
365
357
351
345
339
335
332
328
327
325
327
329
332
337
343
350
357
365
373
382
390
398
405
412
419
424
429
432
434
434
434
432
429
426
421
416
410
403
395
387
379
371
362
354
346
339
333
329
326
324
325
326
328
332
336
342
348
356
364
373
381
390
398
406
413
418
423
426
428
429
429
427
424
419
413
405
396
387
377
367
357
348
338
329
322
315
308
303
300
298
298
299
302
306
311
317
324
332
340
349
358
366
373
379
384
388
391
392
393
391
389
386
381
376
369
363
355
346
337
328
319
310
303
294
288
281
275
271
268
266
266
267
271
275
280
287
293
301
309
318
327
336
343
351
357
362
366
368
369
370
368
366
362
358
352
346
339
332
325
317
309
301
294
287
280
274
269
264
260
257
255
253
254
255
259
263
268
275
282
290
299
308
317
326
334
341
347
352
355
357
358
357
355
352
348
341
335
327
319
311
304
297
291
285
280
275
270
266
261
258
257
256
257
260
264
269
275
282
289
297
306
315
324
333
341
349
354
359
363
364
364
363
359
355
350
343
336
328
321
313
306
299
292
286
282
278
274
272
270
269
269
271
274
278
283
289
296
303
312
321
331
341
350
358
365
371
376
379
381
381
381
380
377
374
369
363
356
348
340
332
325
317
310
303
298
293
290
288
287
288
290
294
299
305
313
321
330
339
349
359
368
377
384
391
397
402
405
408
410
410
410
408
406
402
398
392
386
378
371
363
356
348
342
335
330
324
320
316
313
310
309
309
311
314
319
325
332
339
346
354
363
371
379
386
393
399
404
408
411
412
413
412
410
407
402
396
390
382
375
367
359
351
344
338
332
327
322
318
314
311
309
310
311
314
318
324
330
337
344
352
359
366
373
380
386
392
396
399
401
403
403
402
399
396
391
385
378
371
364
357
350
342
335
327
320
314
309
305
302
301
302
303
306
311
316
322
329
337
346
355
363
372
381
388
395
401
405
408
410
411
410
408
405
401
395
389
382
375
367
359
351
343
336
329
322
316
310
307
303
302
302
304
307
312
319
326
335
343
353
362
371
379
387
393
400
405
409
412
413
414
413
410
407
401
394
386
377
367
357
346
335
325
315
306
299
292
286
282
279
277
277
278
281
284
289
294
301
308
316
324
332
339
346
352
357
362
365
368
369
369
367
364
361
356
350
343
335
326
317
309
300
292
284
276
269
263
257
252
248
245
245
246
248
253
258
264
271
279
288
296
305
315
323
330
336
341
345
346
347
346
344
340
335
329
322
314
305
297
287
278
269
260
251
242
236
230
226
223
222
222
223
225
229
233
239
245
252
260
268
277
286
295
304
312
318
323
327
330
331
332
330
328
324
319
312
304
296
287
278
269
259
249
241
233
226
220
215
212
209
209
210
212
215
220
225
231
239
247
256
265
274
283
291
298
305
310
315
318
320
321
320
317
313
307
301
294
286
277
269
259
251
242
234
226
220
215
211
208
207
207
208
211
215
221
228
236
246
257
268
280
292
304
317
328
338
348
356
363
369
373
374
375
373
370
366
360
354
345
337
329
320
311
302
294
286
279
273
267
264
262
261
261
264
267
271
276
282
290
298
307
316
325
333
342
350
357
362
366
369
371
372
370
368
365
360
354
348
341
334
326
318
311
303
296
290
285
281
278
276
276
277
280
284
289
295
302
310
319
327
337
346
356
365
374
382
389
395
400
403
405
405
403
400
394
388
381
373
364
357
349
342
336
331
327
324
323
323
325
328
333
339
347
357
369
381
395
409
424
439
455
469
484
498
510
521
531
538
543
545
546
543
539
532
524
515
504
493
480
469
456
444
432
422
412
404
397
390
384
380
376
374
372
372
372
372
372
372
372
371
370
369
367
367
365
363
361
359
357
354
351
347
342
337
332
327
322
316
310
304
299
294
289
285
281
279
277
276
277
279
282
287
293
300
308
317
327
336
346
356
367
377
386
396
404
411
416
421
424
425
425
424
420
415
409
402
394
385
376
366
356
347
337
328
320
312
306
301
296
293
291
290
292
295
300
306
313
322
332
342
352
362
372
382
391
399
406
413
417
420
422
423
421
418
413
407
400
392
383
374
364
355
345
337
329
322
316
311
307
305
304
304
306
309
312
318
324
331
339
348
356
365
373
381
389
395
401
405
409
410
411
410
408
404
400
395
388
382
374
366
357
349
341
333
325
319
314
309
307
305
305
307
310
314
319
325
333
340
349
358
367
377
386
394
402
409
414
418
421
422
422
421
418
414
409
404
398
391
384
376
369
361
354
347
340
334
328
323
319
317
317
317
319
322
325
330
336
342
350
357
365
373
381
388
394
400
404
407
409
409
408
406
402
398
394
388
383
377
371
364
357
351
344
338
333
328
324
321
318
317
318
320
323
328
334
340
348
357
366
375
384
393
401
409
416
422
427
431
433
434
434
432
430
427
423
418
413
407
400
393
385
378
370
362
356
350
345
342
340
340
342
344
349
354
360
366
374
381
389
397
405
413
421
430
437
444
450
455
459
463
466
467
467
466
463
459
454
448
441
433
425
417
408
400
393
386
381
377
374
373
373
374
377
381
385
390
396
402
410
418
427
435
443
451
458
464
469
473
476
477
478
477
476
473
470
465
460
453
446
438
430
423
415
408
402
396
391
387
383
381
381
382
384
387
392
398
404
411
419
427
435
443
451
458
463
468
473
476
479
479
479
478
475
471
466
460
453
446
438
430
421
413
404
397
389
383
377
372
369
367
367
369
372
376
382
389
396
404
413
422
430
439
447
454
461
466
471
475
477
478
477
475
472
468
462
456
449
441
432
423
415
406
398
390
382
376
371
367
364
362
363
365
368
373
378
384
391
398
406
415
424
433
442
449
456
462
467
472
474
475
474
472
469
465
459
453
444
436
426
417
407
398
388
379
371
364
358
353
349
347
347
349
352
357
364
370
377
384
391
398
406
413
419
425
430
434
438
440
441
441
441
439
435
431
425
419
411
403
394
385
375
365
356
347
338
331
325
320
316
313
312
312
313
315
318
322
326
331
337
343
349
356
361
367
372
377
381
384
386
387
387
387
384
382
377
372
366
360
353
347
341
335
328
322
316
311
307
304
302
301
302
304
308
312
317
322
329
336
342
350
356
362
368
373
378
381
384
387
387
388
387
385
382
379
374
369
363
356
349
342
334
327
320
313
307
300
295
290
286
284
283
284
286
289
294
300
306
314
322
329
338
347
357
367
375
383
389
394
397
399
399
398
396
393
389
384
378
371
364
356
348
340
333
325
319
312
307
303
301
299
299
300
302
306
312
319
326
334
342
352
360
369
377
384
391
396
401
404
407
408
407
406
403
399
393
387
380
373
364
355
347
338
330
323
316
312
307
304
302
301
301
303
305
309
314
320
326
334
341
350
357
365
372
379
386
392
397
401
404
406
406
405
402
398
393
388
382
375
368
361
355
348
341
334
328
322
318
314
311
310
309
309
311
314
318
323
330
338
346
355
365
374
383
390
397
402
407
410
413
414
414
412
409
404
399
392
384
375
365
356
346
335
325
316
308
301
295
291
288
287
288
290
293
298
303
309
316
324
332
340
349
357
365
373
379
385
389
393
395
395
394
392
389
384
379
373
366
359
351
343
335
327
319
312
306
300
295
291
287
284
282
282
283
285
289
295
301
308
316
324
332
339
346
353
359
365
370
375
378
381
382
382
380
377
372
367
361
354
346
337
329
320
312
304
296
289
283
278
274
273
273
275
278
282
288
294
302
309
319
328
338
348
358
367
375
381
387
390
393
392
390
387
382
376
369
361
352
343
333
324
315
306
298
292
286
281
277
274
272
272
272
275
278
283
290
297
304
312
321
330
339
347
356
364
371
376
381
384
385
386
385
384
381
378
373
367
361
354
346
338
331
323
316
309
304
299
296
294
292
293
294
296
298
302
306
311
317
323
331
338
347
355
363
371
378
384
389
393
395
397
396
395
392
388
384
378
372
365
357
349
341
332
324
316
309
303
298
295
293
292
293
295
298
303
308
314
322
330
339
347
355
363
371
379
385
391
396
399
402
402
401
398
394
389
382
374
366
356
346
336
327
318
309
301
294
288
283
279
276
275
276
277
280
284
290
295
302
310
317
326
334
343
351
358
365
371
375
378
380
380
379
376
372
367
360
353
346
338
330
322
313
305
298
291
285
279
274
270
267
265
265
266
270
274
280
286
293
302
310
320
330
339
348
356
364
371
376
381
384
385
384
382
378
373
368
361
354
347
338
330
322
315
308
301
295
290
287
285
284
284
285
288
291
295
300
306
313
321
329
337
346
354
363
370
377
382
387
391
393
396
396
395
393
390
385
379
372
364
356
347
338
330
322
314
308
302
298
294
292
291
292
294
297
302
308
315
322
330
338
347
356
364
372
379
386
391
396
399
401
402
401
398
393
388
381
374
366
358
350
340
331
322
314
305
298
292
286
281
277
275
274
275
277
281
286
292
298
305
313
320
328
336
343
350
356
361
365
368
370
371
370
369
366
362
357
351
344
336
328
320
312
303
295
287
280
275
271
268
266
267
269
273
279
286
293
303
314
326
338
351
365
378
392
405
417
428
438
447
454
460
464
467
468
468
466
462
458
451
444
435
426
416
404
394
384
375
366
359
353
349
346
345
346
348
351
355
359
365
370
375
379
382
384
384
383
380
376
370
362
354
344
333
321
309
297
284
271
258
245
233
221
210
200
192
185
180
176
175
175
176
179
185
192
202
213
226
240
254
270
285
300
315
329
343
355
365
373
379
384
386
388
387
385
381
376
370
362
354
344
335
325
315
305
295
287
279
272
266
262
259
258
259
262
266
272
278
285
293
301
309
318
326
335
343
350
356
361
364
366
366
364
362
357
352
345
338
330
320
311
302
292
282
273
264
256
249
243
239
237
235
236
238
241
245
251
258
265
273
282
291
300
308
317
325
333
338
343
345
347
348
348
346
342
337
331
324
316
308
298
289
279
270
261
254
247
242
239
236
235
235
237
239
243
248
254
261
268
277
286
295
305
314
323
331
339
345
350
353
353
352
349
345
339
332
324
316
307
298
287
277
266
256
246
237
228
221
215
210
207
206
206
208
212
216
223
230
239
247
257
267
277
286
294
303
310
316
321
325
329
330
331
329
327
323
318
312
304
297
287
277
267
256
246
236
227
219
212
208
206
206
208
212
217
224
232
242
253
264
277
289
300
312
323
333
342
350
356
360
363
364
363
361
357
353
348
342
335
328
321
314
306
299
291
284
277
272
267
264
262
261
261
263
268
272
279
286
294
303
311
320
329
338
346
354
361
367
373
378
382
385
387
387
386
383
380
375
369
363
356
350
342
335
328
322
317
312
308
306
304
304
306
308
311
315
320
325
331
338
345
353
361
367
374
380
385
389
392
394
394
394
394
392
389
385
380
374
367
359
350
342
333
326
318
311
306
300
297
294
293
293
295
298
301
307
313
321
329
338
348
358
367
376
384
392
399
405
409
413
415
416
415
413
409
405
399
393
387
381
375
368
362
357
351
347
343
341
339
339
340
342
346
352
357
365
372
381
391
401
411
422
432
441
450
458
466
473
479
485
489
492
493
493
492
490
486
481
476
469
462
454
447
440
433
426
420
416
412
411
410
412
415
419
424
431
438
447
455
464
474
483
492
501
509
516
522
527
531
535
537
537
536
534
530
526
522
516
510
503
496
488
479
471
463
456
449
444
440
437
436
436
437
439
443
448
454
460
467
475
483
492
500
507
514
521
526
531
535
538
538
538
537
535
531
526
520
513
505
496
487
478
468
458
449
442
434
428
423
419
416
416
416
418
421
424
428
433
437
442
446
450
455
461
466
472
478
482
485
487
488
488
486
483
479
474
466
458
448
438
427
416
404
393
382
372
362
354
346
340
336
333
332
333
336
340
345
352
359
367
376
384
393
400
407
412
417
421
424
426
426
426
424
420
416
410
402
395
387
378
368
359
349
341
333
326
320
315
310
307
305
305
305
307
309
313
319
325
332
339
347
355
363
371
378
384
390
394
397
400
400
400
398
396
391
386
380
373
366
358
350
342
333
325
318
311
305
300
296
294
292
292
293
295
298
303
308
315
322
330
339
347
355
363
371
377
383
388
391
393
393
393
391
388
384
380
374
368
360
353
345
337
328
321
314
307
301
296
292
289
287
287
288
290
294
299
305
312
320
327
336
345
354
362
371
378
384
389
391
393
393
391
388
383
377
371
362
354
344
334
324
314
305
297
289
283
278
274
271
270
270
271
274
278
283
288
295
302
310
316
324
331
339
346
352
359
365
369
373
375
376
375
372
368
363
357
350
342
334
326
318
310
302
295
289
284
279
275
272
270
269
269
270
272
276
281
287
292
299
306
314
321
328
335
341
347
352
356
358
359
359
358
355
352
348
343
337
330
323
315
306
297
288
280
272
265
258
253
249
246
245
245
247
251
256
261
269
277
285
295
304
314
324
333
341
348
354
359
363
366
368
368
367
365
361
357
351
345
338
330
321
313
304
295
287
279
272
266
262
259
258
259
261
264
270
276
284
293
302
312
323
332
342
351
360
368
375
382
387
391
393
394
393
390
386
382
375
368
361
353
344
336
327
318
311
303
297
291
288
285
284
286
287
291
296
302
309
317
327
338
348
359
370
381
391
400
409
416
422
426
429
430
430
429
426
421
416
409
401
391
382
371
361
352
343
336
329
325
322
321
320
320
322
325
330
335
342
350
359
368
377
386
395
403
411
417
422
426
428
428
427
425
421
416
411
405
397
388
378
368
357
347
336
327
318
311
304
299
296
294
293
295
298
302
307
314
321
329
338
348
357
367
376
385
392
399
404
409
412
414
415
414
412
409
404
398
390
382
372
362
352
342
333
324
314
306
299
294
291
288
287
287
289
293
297
301
306
311
317
323
330
337
345
352
358
364
368
372
375
377
378
378
377
373
368
361
353
344
335
325
316
307
298
290
283
277
272
268
265
263
262
263
264
267
270
274
279
285
292
299
306
314
321
328
334
340
345
349
352
354
355
354
353
349
344
338
332
325
317
309
302
294
287
279
273
267
262
257
254
252
251
252
254
257
261
267
274
282
291
300
309
318
327
334
340
345
349
352
354
354
354
352
349
345
338
332
323
313
303
292
282
272
263
254
245
237
230
225
220
217
215
215
216
220
224
230
237
245
253
262
271
281
290
299
308
315
322
327
330
332
332
331
327
323
316
309
302
294
286
278
269
261
253
246
239
232
227
223
221
221
222
224
227
231
237
244
251
259
268
275
283
290
298
305
312
318
323
328
331
332
333
332
330
327
322
317
310
304
297
290
282
275
268
261
254
248
242
238
236
237
240
244
250
257
266
275
286
297
309
320
332
344
356
367
378
387
395
401
406
410
412
412
411
408
403
398
389
380
369
357
343
329
314
301
288
276
265
255
247
241
236
233
231
229
229
230
232
233
234
235
235
234
232
229
225
220
214
207
200
193
186
180
173
168
161
155
148
141
133
125
116
108
99
92
84
77
71
66
62
60
59
59
61
64
69
74
81
88
96
106
115
125
135
143
152
158
164
167
170
171
170
168
164
159
153
147
139
130
121
112
103
94
85
77
68
61
55
49
44
40
38
37
36
38
40
43
48
54
60
68
75
83
90
96
102
107
112
116
119
121
122
121
119
116
111
105
97
89
80
71
62
54
46
38
31
25
19
15
11
9
7
8
8
11
14
19
24
31
38
46
54
63
70
77
83
87
91
93
93
93
91
89
86
82
77
72
66
62
56
51
45
39
32
25
20
15
12
10
9
9
11
14
17
22
29
36
44
52
61
70
78
86
92
99
104
109
112
115
117
118
119
118
118
116
114
111
107
102
95
88
81
72
64
57
50
45
41
39
39
40
42
45
49
53
59
65
74
83
93
103
114
124
134
143
151
159
165
170
174
176
176
176
174
171
166
161
156
150
144
137
130
123
115
107
99
92
85
78
72
67
63
62
63
66
71
78
85
94
104
114
123
133
143
153
163
172
181
189
196
202
207
210
211
211
210
208
204
200
193
186
176
166
155
146
136
129
123
118
115
114
114
116
119
123
129
136
143
151
159
168
176
185
192
200
208
215
221
226
230
233
235
234
233
230
226
221
214
206
198
189
180
171
162
154
146
139
132
126
121
118
117
117
119
124
130
138
147
157
168
181
193
205
217
229
240
251
260
269
276
281
285
287
287
285
282
279
273
268
260
252
243
234
226
219
211
205
200
197
194
193
192
193
194
197
200
205
211
218
227
237
248
260
272
283
295
305
314
322
328
333
335
336
333
330
324
318
310
302
293
284
275
268
259
253
246
241
236
233
231
230
231
233
236
241
247
254
263
272
282
293
304
314
325
334
341
348
352
354
354
353
350
346
339
332
324
315
305
296
286
276
266
255
246
237
228
221
214
209
205
203
202
203
206
210
217
225
235
246
259
271
284
296
307
318
327
335
341
345
347
347
344
340
334
327
319
310
300
289
277
265
254
243
234
225
216
209
203
198
195
193
194
197
203
211
223
234
248
262
277
291
306
320
333
346
355
363
369
373
376
377
376
373
368
361
353
344
335
324
314
303
293
283
273
265
256
248
242
237
233
231
230
231
235
239
246
253
263
273
283
294
305
317
329
339
349
357
364
370
374
376
377
377
374
371
366
360
352
344
334
324
313
303
293
284
275
268
262
257
254
252
251
253
256
259
265
271
277
285
291
299
306
314
322
332
341
350
358
366
372
376
379
380
379
377
372
366
359
351
342
333
323
314
304
296
288
282
276
273
271
270
270
271
273
277
282
290
299
309
320
330
340
349
357
365
370
374
378
381
382
382
381
378
375
370
363
355
346
336
325
313
302
291
280
270
260
251
244
238
234
231
230
231
233
236
241
247
254
262
271
281
290
299
308
317
325
333
340
345
349
351
351
350
347
342
335
327
318
308
297
286
276
265
254
245
237
230
225
222
219
219
219
221
223
227
231
237
244
253
262
271
281
292
302
313
323
333
342
350
356
361
364
365
364
361
356
350
342
333
324
314
304
293
282
272
261
252
244
237
233
231
230
230
233
237
242
250
259
269
280
291
303
315
327
337
346
354
360
365
369
372
373
374
372
370
367
362
356
349
340
332
323
314
305
297
290
283
277
273
270
269
269
270
272
276
281
288
296
304
314
324
335
345
355
365
373
381
386
391
394
396
397
397
395
393
389
384
376
366
353
341
328
318
309
301
294
288
284
281
278
278
280
283
289
297
306
317
329
340
352
364
375
386
396
405
414
421
428
433
437
439
439
437
434
429
423
417
410
402
394
385
375
366
357
349
341
335
329
326
324
324
325
329
334
341
349
359
370
381
393
406
418
430
441
451
460
468
476
483
488
492
494
495
495
492
487
482
474
465
455
445
435
425
414
405
396
389
383
379
377
377
378
380
384
389
395
401
410
419
429
440
451
462
472
482
491
499
507
514
518
523
524
525
524
522
518
514
508
502
494
487
479
471
463
455
448
442
436
432
428
427
427
428
430
434
439
445
453
461
470
479
488
497
506
515
524
532
540
547
553
558
562
564
564
563
559
554
546
537
526
515
503
491
480
469
459
450
442
436
431
428
426
427
430
435
442
450
460
471
483
495
507
519
530
541
551
559
566
572
576
577
577
574
571
566
559
551
540
528
516
503
490
476
463
450
439
429
421
416
412
411
412
413
416
420
425
428
433
439
445
453
462
471
480
489
498
505
512
518
522
524
525
524
521
516
510
503
495
486
476
466
456
445
435
425
416
407
399
391
386
380
377
375
376
378
383
390
398
407
417
428
438
449
461
470
480
488
495
501
504
506
507
505
502
498
492
485
476
467
457
446
435
425
416
407
400
393
388
383
380
379
380
384
389
396
405
414
424
435
445
456
467
477
487
495
503
509
513
516
518
518
517
516
513
510
506
500
493
485
476
466
455
445
435
427
420
415
413
411
412
415
419
424
430
437
444
451
459
467
476
485
494
504
513
521
530
538
544
550
555
558
559
558
554
548
541
532
522
512
501
490
480
470
461
453
446
440
435
431
429
428
429
430
432
436
441
447
454
463
472
481
489
497
505
513
520
527
532
537
540
542
542
541
538
534
528
521
514
505
496
486
476
466
457
450
442
437
432
430
428
429
430
432
435
440
444
451
458
466
475
484
493
502
511
518
526
532
537
541
543
545
545
545
544
543
541
538
534
530
525
521
517
513
510
509
508
510
512
517
522
528
535
543
552
562
572
583
595
607
619
630
641
649
654
655
656
656
656
655
655
654
653
651
647
642
634
626
617
606
595
584
572
559
547
534
522
511
500
489
478
468
459
451
445
441
439
438
439
441
445
451
457
464
472
479
487
494
502
508
514
518
522
523
523
521
518
515
510
505
498
492
486
480
473
468
464
461
459
458
459
461
465
469
474
480
488
495
504
513
523
534
543
553
563
572
580
587
593
596
599
600
598
596
590
584
576
568
558
548
538
527
517
507
497
488
480
473
467
462
458
456
455
455
458
461
466
473
481
490
499
508
518
528
537
546
554
560
565
570
573
574
573
572
568
563
557
550
542
534
525
516
507
498
489
481
473
467
461
456
453
450
450
451
454
457
462
468
476
483
492
500
509
517
526
533
540
546
550
554
556
557
557
555
551
548
543
537
530
522
512
503
492
482
472
463
454
447
440
436
433
431
431
432
435
439
445
452
459
467
475
483
491
499
506
512
518
523
527
530
532
532
530
527
522
517
511
504
496
489
481
473
465
459
452
446
441
436
433
430
429
429
430
432
437
441
447
453
460
468
476
485
494
501
509
515
521
525
528
529
531
531
530
528
525
521
517
512
506
499
491
483
476
468
461
455
450
445
442
441
439
439
441
443
448
453
460
467
476
486
496
506
516
526
536
545
553
560
566
570
573
575
574
572
567
561
553
545
535
526
516
507
498
490
482
475
469
463
458
455
452
452
453
456
460
466
471
478
486
494
502
510
519
528
537
546
553
560
565
569
572
573
572
570
567
562
557
550
543
535
527
518
510
502
493
485
478
471
465
459
455
452
451
451
454
457
463
470
479
489
500
512
524
536
547
557
564
570
574
577
578
577
575
572
567
562
554
546
537
527
517
506
496
486
476
468
460
453
448
445
442
441
441
443
447
452
459
466
474
481
489
496
504
512
520
527
534
540
545
549
551
551
550
547
542
537
530
522
512
502
490
479
469
458
448
440
431
424
418
412
407
404
402
402
403
405
409
415
421
428
436
445
453
461
469
475
481
486
490
493
494
494
492
487
481
472
463
451
439
425
411
395
380
365
350
336
323
309
297
287
277
269
263
258
256
255
256
259
263
269
276
283
291
298
306
313
319
324
329
332
335
337
338
337
336
334
330
325
320
315
309
304
299
295
291
289
287
285
285
285
287
290
294
300
308
318
330
343
357
373
388
403
418
432
446
457
468
477
484
490
494
496
497
496
492
487
480
472
462
451
440
429
417
405
394
384
374
365
358
352
347
343
342
341
343
346
351
356
363
371
380
390
401
412
422
431
440
447
453
459
463
467
469
470
470
469
467
464
460
455
450
444
438
432
425
419
414
409
405
401
399
399
399
402
405
410
416
423
430
438
446
454
461
468
476
482
488
494
498
501
502
502
501
497
493
488
481
473
465
457
447
439
430
421
412
404
396
389
384
380
376
374
374
376
379
384
390
399
409
419
431
443
455
467
478
489
498
507
516
523
529
534
538
539
540
539
537
534
529
524
518
512
505
498
492
485
479
474
469
466
464
464
465
467
469
473
477
481
487
492
498
505
511
517
522
528
533
537
541
544
545
547
545
543
539
535
529
523
516
508
501
493
485
478
470
463
457
453
449
447
446
447
447
449
451
455
460
466
473
481
490
499
508
518
526
534
540
546
550
554
556
558
558
557
554
549
544
536
528
520
511
502
493
484
476
468
461
456
452
449
448
449
451
454
458
464
470
478
486
495
503
512
519
527
534
540
545
550
553
556
557
556
554
550
544
538
532
523
515
506
496
487
478
469
460
452
444
436
430
423
418
416
416
418
422
427
434
442
451
461
471
481
491
502
513
524
535
545
554
562
567
572
574
575
574
571
566
561
553
545
536
526
516
506
496
486
478
469
462
457
453
451
450
451
453
457
462
468
475
483
492
500
509
517
525
532
539
544
548
551
552
552
551
548
544
540
534
527
520
512
504
495
487
478
470
462
456
449
445
441
438
437
437
439
442
446
452
459
467
475
484
493
501
510
518
525
532
538
542
546
548
550
549
548
545
541
536
530
524
516
508
499
490
481
471
463
454
447
441
436
433
432
432
435
439
444
451
458
466
474
483
492
501
509
516
523
529
533
537
539
539
537
535
531
526
520
514
506
498
489
480
471
462
454
446
440
434
430
427
425
423
423
425
428
433
439
446
452
459
466
473
479
485
490
495
500
504
507
510
511
511
510
507
503
499
493
487
480
473
466
458
450
442
435
427
420
413
408
404
402
400
400
401
404
407
411
416
423
430
438
447
456
466
475
484
493
500
505
510
513
514
514
512
508
502
495
486
477
467
457
446
436
426
416
407
398
391
386
381
377
375
374
374
376
379
383
388
395
402
411
420
429
438
446
454
460
467
471
475
478
479
479
477
473
469
464
457
450
442
433
425
416
407
399
391
383
377
371
367
365
363
363
364
366
370
376
382
389
397
405
414
422
431
439
447
454
461
466
471
475
478
479
479
477
472
467
459
450
440
429
418
406
395
385
375
366
358
352
347
343
341
340
342
346
351
357
363
370
378
385
393
401
409
416
422
427
431
434
435
434
432
430
426
421
417
412
407
402
396
390
383
375
367
359
352
345
339
334
330
328
327
328
331
335
341
348
356
364
373
382
390
398
406
413
419
423
427
430
432
432
431
429
426
422
416
410
403
395
387
378
368
359
350
341
332
325
317
311
306
303
302
303
304
307
312
318
326
334
344
354
365
376
388
399
410
420
428
434
439
442
443
443
442
439
435
430
424
417
409
401
393
385
378
372
366
361
358
355
354
355
357
361
367
374
384
393
405
417
431
444
458
471
483
494
503
511
518
523
527
529
530
528
524
518
510
501
491
480
469
458
445
433
421
409
399
389
380
374
367
361
357
353
350
348
344
342
338
336
335
334
335
338
342
346
351
355
360
363
367
370
372
373
373
372
370
367
363
358
352
346
340
334
328
323
319
314
310
307
304
303
302
304
306
309
313
318
324
332
340
349
358
367
376
384
392
399
406
411
416
420
422
423
422
419
414
406
397
387
376
365
354
343
332
321
312
304
297
291
286
283
281
281
282
285
289
294
301
309
319
329
340
352
362
372
382
391
398
404
409
412
414
414
413
411
408
404
398
391
384
375
366
356
346
336
327
319
311
305
300
296
293
291
291
293
297
302
308
315
322
329
337
345
354
364
373
381
388
394
399
402
404
405
404
402
398
392
386
379
372
363
355
346
337
329
322
314
308
303
299
297
296
297
300
304
309
316
323
331
339
349
359
369
379
389
398
405
412
418
423
427
429
430
428
424
419
413
405
396
386
377
366
356
346
336
328
320
313
308
304
302
300
300
302
305
310
315
322
330
339
348
358
368
378
388
397
406
414
421
426
429
431
430
428
424
419
415
408
402
394
386
377
367
358
348
339
331
324
318
314
311
309
310
312
315
320
326
333
341
350
359
370
380
389
397
405
413
420
426
431
434
437
437
436
434
430
425
418
411
402
394
384
375
364
355
345
337
330
324
320
318
317
317
319
323
328
334
342
351
360
370
381
391
401
410
420
427
435
441
446
450
452
453
451
449
444
437
429
420
410
399
387
376
365
354
345
336
327
321
315
312
311
312
314
319
325
333
342
352
363
374
385
396
406
416
425
434
441
447
452
455
456
456
454
451
446
440
434
427
418
410
401
393
384
375
366
358
350
342
336
330
326
324
323
325
329
335
343
352
363
373
385
396
408
419
429
438
445
451
456
459
460
459
457
453
448
443
437
430
423
415
406
397
387
377
367
358
351
345
341
338
338
338
340
344
349
355
363
371
380
389
400
410
420
430
440
448
456
462
467
470
472
472
471
468
463
456
449
440
430
420
410
399
388
379
370
362
354
348
343
340
338
339
341
344
349
354
361
368
377
386
396
405
415
425
434
442
450
456
461
464
466
466
464
461
456
449
442
433
423
413
402
392
382
372
363
355
348
342
338
335
335
335
337
340
345
350
356
363
371
379
387
396
405
413
421
428
435
441
446
449
451
451
449
444
439
430
421
410
399
387
374
362
350
338
327
317
309
303
299
297
295
296
297
300
304
309
316
322
330
338
346
354
361
368
375
380
385
389
392
394
394
393
390
386
381
375
367
359
350
341
331
321
312
302
294
287
281
278
275
273
273
274
275
277
280
284
289
296
303
310
318
326
334
341
348
354
359
363
366
368
369
368
366
363
359
354
347
340
331
322
313
303
294
286
279
271
264
259
254
251
249
250
251
254
259
265
272
281
290
300
311
321
332
342
351
359
366
372
376
379
380
379
376
372
367
360
352
343
333
323
313
303
292
283
273
266
258
253
248
245
243
243
244
246
250
256
262
270
278
287
297
307
318
328
337
346
353
358
362
364
364
364
362
358
353
345
337
328
318
310
300
291
281
273
264
258
251
246
243
240
240
241
243
247
252
258
266
274
284
294
304
314
324
333
342
349
356
360
364
367
368
367
365
362
357
351
344
335
326
316
305
295
284
275
266
258
252
247
244
242
241
241
243
246
250
255
262
269
278
287
298
308
319
330
339
348
355
360
364
366
367
365
363
359
354
348
341
332
323
313
302
291
281
270
261
253
246
240
237
235
235
237
241
246
253
261
271
281
291
301
310
319
328
336
344
350
357
362
366
368
369
367
364
360
354
348
341
333
324
316
307
299
290
282
274
268
261
256
252
250
249
250
252
256
260
266
272
279
288
296
305
314
324
333
341
349
355
359
362
362
362
359
356
351
345
339
332
324
315
306
296
287
277
269
260
253
247
242
239
237
237
239
242
247
252
259
266
274
282
289
298
305
312
320
326
333
340
346
352
356
360
362
363
362
358
353
346
338
328
319
309
299
288
279
270
263
256
251
247
245
244
245
248
252
258
265
272
280
289
298
308
319
328
337
345
353
359
364
367
369
369
368
366
363
359
354
347
338
329
319
308
297
287
278
270
263
257
253
251
250
252
254
258
263
270
277
285
295
304
315
324
335
344
353
362
370
377
383
387
390
391
391
388
384
379
372
365
355
346
336
325
315
305
296
287
279
273
268
264
261
261
261
263
266
270
276
282
289
297
305
314
324
333
343
352
360
367
373
378
381
382
381
379
375
370
364
356
347
337
328
317
308
298
290
282
276
271
267
264
262
260
261
262
266
270
276
283
290
298
306
314
323
331
338
345
351
356
359
361
361
360
358
354
349
342
335
328
320
312
304
295
287
279
271
264
256
250
245
242
240
240
242
245
250
257
264
273
283
293
304
314
324
334
342
349
355
361
365
368
369
369
367
363
358
352
345
337
329
320
310
301
291
283
274
266
259
253
249
246
245
244
245
248
253
258
265
273
282
291
301
310
319
328
336
344
351
357
362
366
368
369
368
366
362
357
351
343
335
326
317
307
298
288
279
272
265
258
253
250
248
248
249
252
257
261
267
274
281
289
299
308
319
330
340
349
357
364
370
375
378
380
379
378
374
369
363
355
346
337
328
319
309
300
291
283
276
270
265
263
262
262
264
266
270
274
280
287
295
305
315
326
337
347
357
366
373
379
384
387
389
389
388
386
383
378
373
366
360
352
344
336
329
323
318
314
312
311
311
312
316
321
328
336
345
356
368
380
393
407
421
434
447
458
469
478
486
492
496
497
497
495
491
485
478
468
459
448
437
425
413
399
386
372
359
348
337
328
320
313
307
302
298
295
292
290
290
290
292
294
298
302
308
313
320
327
333
339
344
348
352
353
354
353
351
348
343
338
332
325
319
311
304
297
291
285
280
276
274
273
273
274
277
281
285
291
298
305
313
323
332
342
352
361
369
377
384
389
393
395
396
396
394
391
387
382
376
369
361
351
342
331
322
311
302
293
285
278
273
268
265
263
264
266
270
275
282
290
298
307
316
326
335
345
354
362
370
375
379
381
382
382
380
376
372
366
358
350
341
332
322
313
303
294
286
278
272
266
262
259
258
258
259
262
267
272
278
285
293
302
312
322
331
340
349
357
364
370
375
379
381
381
381
378
375
371
365
359
351
342
334
324
315
305
296
288
280
274
269
266
263
263
265
268
272
278
285
294
302
312
321
331
341
350
358
365
372
378
382
386
388
388
387
384
380
375
369
362
354
345
335
326
317
308
300
292
285
279
273
270
267
267
268
270
274
278
285
292
301
310
320
330
341
351
361
371
380
387
392
396
397
397
395
392
387
381
373
365
356
346
336
326
316
306
298
291
284
279
275
272
271
271
273
277
282
288
294
303
313
322
333
342
352
361
369
376
383
388
393
396
397
396
395
391
386
380
373
365
356
347
337
327
317
307
298
291
284
278
274
272
270
271
274
277
283
290
297
306
316
326
336
346
356
365
374
382
389
395
400
403
405
406
404
401
397
391
384
377
368
359
350
340
331
323
314
306
299
293
288
283
281
279
280
282
286
290
296
303
311
320
329
339
349
359
368
378
386
393
399
403
405
406
405
403
399
394
388
381
372
364
355
346
336
328
319
312
306
301
297
294
294
295
297
301
305
311
318
325
333
341
350
359
369
378
386
394
401
407
411
414
415
415
413
410
405
399
392
385
376
368
359
350
342
333
324
315
308
302
298
295
293
294
296
299
304
311
320
329
339
350
360
370
380
389
397
404
410
415
418
419
419
418
415
412
407
402
395
387
380
371
363
354
345
336
328
320
313
307
303
301
300
300
302
306
310
315
322
329
337
345
355
364
373
382
391
399
406
411
416
419
419
419
416
412
407
401
394
387
379
371
363
354
345
336
328
320
314
309
305
303
301
302
304
306
311
316
322
329
337
346
355
364
373
382
389
395
400
403
406
407
406
404
401
396
390
382
374
364
355
345
335
325
315
305
296
287
280
273
268
263
261
259
259
261
264
268
273
280
288
296
305
314
323
332
340
349
356
362
366
369
370
369
367
363
358
352
345
337
328
319
308
298
287
277
268
259
252
247
243
240
240
240
242
246
250
256
263
271
280
290
299
310
319
329
338
346
353
358
362
364
365
364
362
358
354
348
341
332
323
314
304
294
284
274
265
256
248
241
236
232
230
228
229
231
235
240
246
254
262
272
281
291
301
310
320
327
335
341
346
350
353
353
353
351
347
341
334
327
319
310
301
292
283
274
265
256
249
243
238
234
232
232
232
235
239
245
251
259
268
277
287
297
307
318
327
336
344
350
355
359
362
362
361
359
355
349
343
336
327
318
308
298
288
279
270
262
254
248
244
241
239
240
240
244
247
253
260
268
277
287
298
309
320
331
340
350
357
364
369
372
373
373
371
367
361
354
346
336
327
317
307
296
287
277
269
261
256
251
247
246
244
244
247
252
259
267
276
285
294
304
314
324
333
342
350
357
363
368
372
374
374
373
371
367
362
355
348
339
330
320
309
299
289
280
271
262
256
250
246
243
243
243
246
250
255
261
268
276
285
294
303
313
322
331
340
347
354
359
363
366
367
366
364
360
355
350
342
335
326
317
308
300
291
283
276
269
264
259
256
253
253
253
256
260
264
269
275
282
289
298
307
315
325
334
342
350
356
362
366
368
369
369
367
364
359
354
347
339
331
321
311
301
290
280
271
262
255
249
245
243
242
243
245
249
255
261
269
278
287
297
307
317
327
336
346
354
362
368
372
375
376
375
372
368
363
357
349
341
332
322
313
302
293
282
274
265
258
252
247
243
241
241
242
245
251
257
265
274
284
294
305
315
326
336
345
354
361
368
373
376
378
377
375
372
367
362
355
347
339
329
320
310
301
292
283
275
269
264
260
257
256
256
257
260
265
271
279
288
298
309
319
329
339
348
356
364
370
376
380
383
385
385
383
378
373
367
360
352
344
335
325
316
307
298
289
282
276
271
267
265
265
265
268
271
276
283
290
298
306
316
325
335
344
353
362
370
377
383
387
391
393
393
391
388
384
377
370
363
354
344
335
325
316
307
299
291
284
278
273
270
268
267
269
271
275
279
286
292
300
309
318
328
337
346
354
361
367
373
377
380
381
381
379
375
371
364
356
347
337
326
315
304
293
282
271
262
254
247
243
240
240
241
244
248
254
262
270
280
290
300
310
321
331
341
350
359
366
372
377
379
381
381
379
376
372
366
359
351
344
334
325
316
307
298
291
284
278
272
269
266
264
264
266
268
272
278
284
293
301
310
319
329
339
349
358
366
373
379
384
387
388
388
386
383
379
373
367
359
351
342
333
323
314
304
296
289
283
278
276
274
274
275
278
281
285
291
297
305
313
322
330
339
348
355
362
369
374
379
382
385
385
384
382
378
374
368
362
355
347
339
331
322
314
307
300
294
289
284
281
279
277
278
279
283
288
294
301
310
319
329
339
348
357
366
373
379
384
388
391
393
394
393
391
387
381
375
368
361
353
344
336
327
318
311
304
298
294
291
289
288
287
288
290
293
297
303
310
319
329
340
351
362
373
384
394
403
412
420
427
432
436
439
441
442
441
439
435
431
426
420
415
409
404
400
396
393
390
388
387
386
387
388
389
392
395
399
403
408
413
419
425
431
437
444
450
455
460
463
465
466
465
462
457
450
442
431
419
404
388
371
354
337
321
306
291
278
267
258
251
245
242
242
244
247
253
260
269
279
290
302
314
327
338
350
360
370
379
386
392
397
400
401
401
398
395
390
384
378
369
361
352
343
334
325
316
308
301
294
290
287
286
287
290
294
300
308
317
326
336
346
356
366
375
383
391
397
402
406
409
410
409
407
404
399
393
386
378
370
361
351
341
330
320
310
301
293
286
281
277
275
275
276
279
284
290
297
305
314
324
334
344
355
365
375
384
392
399
404
409
411
411
409
406
402
396
390
382
374
366
356
347
338
329
320
312
304
297
292
287
284
282
281
283
286
291
297
304
313
323
333
342
353
362
372
381
389
396
401
405
408
409
408
406
402
397
391
384
375
367
357
348
338
328
319
310
303
297
292
289
287
287
288
291
296
301
307
314
322
331
341
350
360
369
378
386
394
401
406
411
413
415
414
412
408
403
397
389
380
370
359
348
337
328
318
309
301
294
288
284
281
280
281
284
287
293
299
307
315
325
334
344
354
363
372
380
388
394
400
404
407
409
408
408
405
402
397
391
383
376
367
359
350
341
332
323
315
309
304
300
298
298
299
302
307
311
317
324
333
341
351
360
370
380
390
398
405
411
415
418
418
419
417
414
410
404
398
391
382
374
364
354
345
335
326
317
309
302
296
291
289
288
288
291
296
302
310
318
329
339
350
360
371
381
391
400
407
414
419
423
425
426
425
423
419
414
407
399
391
382
373
365
355
346
337
330
322
316
