316
318
321
323
327
331
335
339
343
346
350
353
355
358
359
361
361
361
360
359
358
356
354
352
349
347
344
341
338
335
333
331
329
328
326
325
323
323
322
322
323
324
326
329
332
336
341
346
351
355
358
361
364
367
368
370
370
370
370
369
368
366
363
361
358
355
353
350
347
344
341
339
338
336
335
335
334
335
336
337
339
341
345
348
351
355
359
363
367
370
373
376
379
380
382
382
383
382
381
379
378
375
373
370
367
363
360
357
354
351
348
346
343
341
339
338
338
337
338
339
340
342
345
349
353
357
362
366
371
375
378
382
384
387
389
390
391
391
390
389
387
385
383
380
378
375
371
368
364
362
358
356
354
352
351
349
349
349
349
350
351
353
356
359
363
367
371
376
379
383
386
389
392
393
394
395
394
394
393
392
390
388
385
382
379
376
373
370
366
363
360
358
356
354
352
351
350
350
350
351
352
354
357
360
364
368
372
377
381
385
389
393
396
398
400
401
402
402
401
400
399
397
395
393
390
387
384
382
379
376
373
370
368
366
364
362
361
360
360
361
362
364
366
369
373
377
381
385
389
393
396
399
401
403
405
407
408
408
408
408
407
405
404
401
400
396
394
390
387
384
381
379
377
375
374
373
372
371
371
371
372
373
376
378
382
385
389
393
397
400
404
406
409
411
413
415
415
415
414
414
412
410
408
405
402
398
396
392
389
387
384
381
380
378
377
376
375
375
375
376
377
379
382
385
389
393
398
402
407
411
414
418
421
423
426
427
428
428
428
426
425
422
420
417
415
411
408
405
402
399
396
393
391
389
387
386
385
384
384
384
386
388
391
393
397
401
405
409
413
417
420
423
425
427
428
428
429
428
428
427
425
423
421
418
415
412
410
406
403
400
397
394
392
390
388
387
386
386
386
387
388
391
394
398
401
406
410
415
419
424
427
431
433
435
437
438
438
438
437
435
433
431
429
426
423
420
417
414
411
408
405
403
400
398
397
396
395
395
396
398
400
402
404
408
411
414
418
423
427
431
435
439
442
444
446
448
449
449
449
448
446
444
442
439
437
434
431
428
425
422
419
417
415
413
412
410
410
409
409
410
410
412
415
418
422
426
431
435
440
443
447
451
454
456
458
460
460
460
460
459
458
456
454
451
449
446
443
440
437
434
432
430
428
426
425
424
423
423
423
424
425
427
429
431
434
438
442
446
449
452
454
456
457
457
457
456
454
452
449
445
442
437
433
428
424
419
414
410
405
401
397
393
389
386
383
381
378
376
375
375
375
376
378
380
383
386
390
393
396
400
403
405
407
408
408
408
407
406
404
402
400
397
394
391
387
384
381
377
374
371
369
367
364
363
361
360
359
359
360
361
364
367
371
375
380
384
389
394
399
403
406
409
411
412
412
412
411
410
407
406
404
402
400
398
396
394
392
390
387
386
384
382
381
379
378
377
376
377
377
378
379
381
384
387
391
395
399
403
407
411
414
417
419
421
422
423
423
422
421
419
417
414
411
408
405
403
400
397
394
392
390
388
386
385
384
383
383
383
384
385
386
388
391
394
397
401
405
409
413
417
420
424
427
429
431
432
432
432
432
431
429
428
425
423
421
418
416
413
411
409
407
404
403
401
400
399
399
399
399
400
402
405
408
411
415
419
423
428
432
436
440
443
446
448
450
451
451
452
451
450
449
448
446
444
442
440
438
434
432
429
426
423
421
419
417
416
415
415
416
417
419
422
426
432
437
443
450
457
464
471
479
486
493
499
505
511
516
522
526
530
534
537
540
541
543
542
543
541
539
536
532
528
524
519
515
510
506
501
497
494
491
489
488
488
489
491
493
496
498
501
503
505
506
505
503
499
494
488
481
473
465
456
447
438
429
421
413
406
400
395
390
387
384
382
380
379
379
379
381
383
385
389
394
399
405
411
418
424
430
436
441
446
450
454
457
459
461
461
461
460
459
457
455
452
449
446
442
439
436
433
430
427
424
422
420
418
416
415
415
415
416
418
420
423
427
431
434
438
442
446
448
451
454
456
457
458
459
459
459
457
456
454
451
448
445
442
439
435
431
428
424
421
418
416
414
412
411
410
410
410
412
414
417
420
424
428
433
437
441
445
448
451
454
456
457
458
458
457
456
454
452
449
447
444
441
437
435
431
429
426
423
421
419
417
416
415
415
415
416
418
420
423
426
430
434
439
443
448
452
455
459
461
464
466
467
467
467
466
465
463
461
459
456
453
449
446
442
439
436
432
430
427
425
423
422
420
420
420
420
422
423
426
429
432
436
440
445
449
454
457
461
464
467
469
470
471
472
471
470
469
467
464
462
460
457
454
451
448
445
441
438
436
433
431
429
427
425
424
424
424
425
427
429
433
437
441
446
451
456
460
464
467
471
473
474
475
476
475
475
473
471
469
466
463
460
457
454
451
448
445
443
441
438
437
435
434
433
433
433
434
435
438
441
444
448
452
457
461
466
470
473
477
479
481
482
483
484
483
483
482
480
478
475
471
468
465
461
458
455
452
448
446
443
441
440
438
437
437
437
438
440
442
445
448
452
456
461
465
469
473
477
480
483
485
487
488
488
488
487
486
484
482
479
477
474
470
467
464
461
459
456
454
452
450
449
448
448
447
448
449
451
454
457
460
465
469
475
480
485
490
494
498
500
503
504
505
504
503
502
499
497
494
492
489
485
483
479
476
473
470
468
465
464
462
461
460
459
459
460
461
462
465
468
472
476
480
484
488
493
497
500
503
506
508
510
511
511
511
511
509
508
506
503
501
498
495
491
488
485
482
479
476
474
472
471
469
468
468
468
469
470
472
475
479
482
486
491
495
499
503
506
509
512
514
515
516
516
516
515
514
511
509
506
503
500
496
494
490
488
485
482
480
478
477
475
475
474
474
473
474
475
477
479
482
485
489
493
497
501
504
507
510
513
515
516
516
516
516
514
512
510
507
504
500
497
493
490
486
483
480
477
474
471
469
467
465
465
464
463
463
464
465
467
469
472
475
478
481
483
486
488
490
491
492
492
492
491
490
488
486
484
481
478
475
471
468
464
460
457
453
449
446
443
439
436
434
432
431
430
430
430
431
433
435
438
441
444
447
451
454
457
459
461
462
463
462
462
461
460
457
456
452
449
446
443
439
435
431
427
423
420
416
414
411
409
407
406
406
406
407
408
411
413
416
420
424
428
433
436
439
443
446
448
450
451
451
451
449
448
446
443
440
437
434
431
427
424
420
417
414
411
408
406
404
403
401
400
400
400
400
402
404
406
410
413
418
422
426
430
433
437
439
441
443
444
445
445
444
443
441
439
436
433
430
427
423
420
417
414
411
409
406
404
403
401
401
400
399
399
399
400
401
403
406
410
414
418
422
427
430
434
437
440
442
443
444
444
443
442
441
439
436
433
430
427
424
421
418
415
413
410
408
405
403
401
399
398
398
397
398
398
400
402
405
409
412
417
420
425
428
432
435
437
439
441
441
442
441
441
439
438
436
434
431
428
425
422
419
416
413
411
408
406
404
402
400
399
399
399
399
400
402
405
408
412
416
420
425
429
432
435
438
440
442
443
443
443
442
441
439
437
434
432
428
424
421
417
414
410
407
404
401
399
397
395
394
393
393
393
394
396
398
400
404
407
411
415
419
423
427
430
432
435
437
438
438
438
438
437
435
433
431
428
425
422
418
415
411
407
404
401
398
395
393
391
389
388
388
388
389
390
393
396
399
403
408
412
416
420
424
427
429
432
433
435
435
435
435
434
432
431
428
426
423
420
417
413
410
407
404
401
398
396
394
392
391
390
389
389
390
392
394
396
399
403
407
411
415
419
423
426
429
431
433
434
435
435
435
434
432
431
428
425
422
419
415
412
408
405
402
399
396
394
392
389
388
387
386
387
388
390
392
395
399
402
407
411
415
419
422
426
428
431
432
433
434
433
433
432
430
427
425
421
418
415
412
409
405
402
399
396
393
390
388
386
385
384
383
383
384
385
387
389
392
396
400
403
407
411
414
417
420
423
425
426
427
427
427
426
425
423
420
418
415
412
408
405
401
398
395
392
390
388
385
384
382
382
381
382
382
384
386
389
392
396
400
404
408
412
416
419
420
422
424
424
425
424
423
422
420
418
415
413
409
407
404
401
397
394
391
389
387
385
383
381
380
380
379
379
380
382
384
387
390
394
398
402
406
410
414
416
419
420
422
422
422
422
421
420
418
416
413
410
407
404
400
398
395
392
389
387
385
383
381
379
378
378
378
378
379
381
383
386
390
394
398
402
407
411
415
418
422
424
427
429
429
430
430
429
429
427
425
423
420
417
414
411
408
405
402
399
397
395
393
390
389
387
387
386
387
388
389
392
394
398
402
405
409
413
416
419
421
424
425
426
427
428
428
427
426
424
422
419
416
414
410
407
404
401
398
395
393
390
388
387
385
385
384
384
385
386
389
392
396
399
404
408
412
416
420
424
426
429
430
432
432
433
432
432
430
428
426
423
420
417
413
409
405
402
398
395
392
389
387
385
383
382
381
381
381
382
384
386
389
393
396
400
403
407
409
412
413
414
415
415
415
414
412
410
407
404
401
398
395
391
388
384
381
377
373
370
367
365
363
361
361
359
359
359
361
362
365
368
371
375
379
384
388
392
396
399
402
403
405
406
406
406
405
404
402
400
397
393
390
386
382
379
375
372
369
366
364
362
360
358
357
356
356
356
356
358
359
362
365
369
373
377
381
384
388
390
393
395
396
396
396
396
395
394
392
390
388
385
383
380
377
374
372
369
367
364
362
360
358
357
356
356
356
356
357
359
361
363
366
369
373
377
381
385
388
391
393
394
395
396
396
395
394
392
390
388
385
382
379
376
373
369
366
363
360
357
355
353
351
350
349
348
348
348
349
351
354
356
360
364
369
373
377
381
385
388
390
392
394
395
395
396
395
395
393
392
390
388
386
383
381
379
376
373
371
368
365
364
361
360
358
358
358
359
360
363
367
372
377
383
390
396
403
410
417
424
430
437
442
448
453
457
461
464
468
470
472
474
475
475
475
474
472
470
467
464
460
456
452
448
443
439
435
431
428
426
424
423
423
424
426
428
430
432
435
437
438
439
439
438
436
432
427
420
413
404
396
387
377
368
359
351
342
336
330
324
320
316
314
312
311
311
311
312
315
318
322
327
333
338
345
351
358
364
370
375
380
384
387
389
392
392
393
392
390
389
386
383
380
377
373
369
366
362
359
356
352
350
347
345
343
342
341
341
342
343
345
347
350
353
357
360
364
367
369
372
374
375
377
377
377
376
375
374
371
369
366
363
359
356
352
349
345
342
339
337
335
333
332
330
330
330
330
331
333
335
337
341
344
348
353
357
362
365
369
372
375
377
379
380
381
381
380
379
377
375
372
369
366
363
360
357
354
351
348
345
343
341
339
337
336
335
334
334
335
336
338
341
345
348
352
356
361
365
369
372
374
377
378
379
379
379
378
377
376
373
371
368
365
362
359
356
353
350
347
344
341
339
337
336
335
334
334
335
336
338
340
342
346
350
354
358
362
366
369
373
375
377
379
380
380
380
380
378
376
374
371
368
364
361
357
354
351
347
345
342
340
338
336
335
334
334
334
335
336
338
341
343
347
352
356
361
365
369
372
375
378
380
381
382
382
381
380
379
377
374
372
369
365
362
358
355
351
348
345
343
341
339
337
336
335
334
335
336
338
340
342
346
349
354
357
362
366
370
373
376
378
380
381
382
382
382
381
380
377
375
373
370
367
364
361
358
354
351
348
346
343
341
339
338
337
336
337
337
339
341
344
347
351
356
360
364
368
371
375
378
380
383
384
385
385
385
384
382
381
378
376
373
370
367
364
361
357
355
352
349
347
344
343
341
341
340
341
342
343
346
349
352
356
360
364
368
372
376
380
383
385
387
389
390
390
390
389
388
386
385
382
379
376
373
370
367
365
362
360
357
356
354
353
352
352
352
352
352
353
355
357
360
363
366
370
374
378
382
386
389
391
393
395
396
396
395
395
394
392
390
388
385
382
379
376
373
370
367
364
362
359
358
356
354
353
353
353
354
355
356
359
362
365
369
373
378
382
386
390
394
397
399
400
402
402
402
401
400
399
397
395
392
389
386
383
380
377
374
371
368
366
364
363
361
360
360
360
361
362
364
366
369
373
377
381
384
388
392
396
398
401
403
404
405
405
405
405
403
402
399
397
394
391
388
384
380
376
373
369
366
363
360
358
357
355
354
353
353
353
354
356
359
361
364
367
370
373
376
378
380
381
382
382
382
381
380
378
376
374
371
368
365
361
357
353
349
345
341
338
334
331
328
325
323
321
320
318
318
318
319
320
323
325
328
332
335
338
341
343
345
348
349
350
350
350
349
347
345
343
341
337
335
331
328
324
321
318
315
312
310
307
305
304
302
301
300
300
300
301
303
305
307
310
313
317
320
324
328
331
334
336
337
338
339
339
338
337
336
334
332
329
327
324
322
319
316
313
311
308
305
303
301
299
297
296
295
295
295
297
298
300
303
306
309
314
317
321
324
328
331
334
336
337
339
339
339
338
337
335
333
330
328
325
322
319
316
312
309
306
304
301
299
297
295
294
293
293
294
295
297
299
302
306
309
314
317
322
325
329
332
335
337
338
340
340
340
339
338
336
334
332
329
326
323
319
317
313
309
307
304
302
300
298
297
296
295
295
295
295
297
299
302
305
309
313
317
320
324
327
330
332
334
335
336
337
336
335
335
332
330
328
325
322
318
315
311
308
305
302
299
297
295
293
292
291
290
290
292
294
295
298
301
305
310
314
318
322
326
329
331
333
335
336
336
335
335
333
331
329
327
324
321
318
315
313
310
307
305
302
300
298
296
295
294
294
293
295
295
297
298
301
304
307
311
314
318
322
325
328
331
333
335
336
337
337
337
337
335
334
332
329
326
323
320
317
314
311
308
305
302
300
298
297
295
295
294
294
295
296
298
300
303
307
311
315
319
323
327
331
334
336
338
339
340
340
340
339
337
335
332
329
326
323
320
317
314
311
308
306
303
301
299
297
296
295
294
294
295
296
298
300
303
307
311
315
319
323
326
330
333
335
337
338
339
339
339
338
336
335
332
329
326
323
320
316
313
310
307
304
301
299
297
295
294
293
292
293
293
295
296
299
302
305
309
313
317
321
324
327
330
332
334
335
335
335
334
333
332
330
327
325
322
319
316
312
309
307
303
301
299
297
295
294
293
292
292
292
293
295
297
299
302
306
309
313
316
319
323
326
328
330
331
332
333
333
332
331
329
327
325
322
319
317
313
310
308
305
302
299
298
296
294
293
292
291
291
291
292
293
296
299
302
306
310
314
318
322
326
329
332
335
337
339
339
340
339
338
337
335
334
331
328
325
322
319
316
312
310
307
304
302
300
299
297
296
296
296
297
298
299
302
305
308
312
316
321
325
329
333
336
339
341
342
343
344
344
343
342
340
338
335
333
330
327
325
322
319
316
314
312
309
308
306
304
303
302
302
302
303
304
306
309
312
316
319
323
327
330
333
336
338
339
340
340
340
340
338
337
334
332
329
326
323
320
317
313
311
308
306
304
302
300
299
298
297
297
298
299
301
304
307
310
314
318
323
328
332
336
340
342
346
347
349
350
351
351
350
349
347
345
342
340
337
334
330
327
323
320
317
314
311
309
307
306
304
304
305
305
306
308
311
315
319
323
328
332
337
340
344
347
349
351
351
352
353
352
351
350
348
346
344
341
338
335
332
330
327
324
322
320
319
317
316
316
316
317
318
319
320
322
324
327
331
334
338
342
345
348
351
353
355
356
357
357
357
355
354
352
349
347
344
340
337
333
330
326
323
320
317
315
313
311
309
308
307
307
307
308
309
310
313
315
318
321
324
328
331
334
336
338
340
340
341
341
340
339
337
335
333
330
328
325
322
319
316
313
310
307
304
302
300
298
298
297
296
296
296
297
298
301
303
307
310
314
318
322
326
329
332
334
336
338
339
339
339
338
337
335
333
331
329
326
322
319
316
313
310
308
305
303
301
299
297
296
295
294
295
296
297
300
302
306
309
313
318
322
326
330
333
336
338
339
340
341
340
340
339
338
336
334
331
328
325
321
318
315
311
308
306
303
301
298
297
295
294
295
295
296
298
300
303
306
309
313
318
321
325
329
331
334
336
338
339
339
340
339
338
337
335
332
330
327
324
321
318
315
312
309
308
305
303
302
301
300
299
299
299
300
301
303
305
308
312
316
319
323
327
330
334
336
338
340
342
342
343
343
342
342
341
339
338
335
333
331
328
325
322
320
318
316
314
313
312
312
313
314
316
319
323
328
333
339
346
353
361
369
377
385
393
400
406
412
418
423
428
432
435
437
439
439
439
437
435
432
428
423
418
412
407
401
395
389
384
378
374
370
367
365
364
364
365
366
369
372
375
378
380
382
382
381
378
374
369
363
357
350
342
335
328
320
313
307
301
296
291
287
283
281
278
277
276
275
275
276
277
279
281
284
288
293
297
303
308
315
321
326
332
336
341
345
348
350
352
353
353
352
351
349
347
344
341
338
334
331
327
324
321
317
314
311
309
306
304
302
301
301
301
302
303
305
308
311
315
319
322
327
330
333
336
338
340
342
343
343
343
342
341
340
338
336
333
331
328
325
322
320
317
314
312
310
308
306
305
304
303
303
304
304
306
308
310
313
316
320
323
327
330
333
336
338
341
342
343
344
344
343
342
341
339
338
335
333
331
329
326
323
320
317
314
312
310
308
307
306
305
305
305
306
308
310
314
317
321
325
329
333
337
340
343
345
346
348
348
348
348
347
345
344
342
339
337
335
331
328
325
323
320
317
315
313
311
309
308
307
307
307
307
308
310
312
314
318
321
325
329
332
336
339
342
345
347
349
350
350
350
350
349
347
345
343
340
338
335
332
328
325
322
319
317
314
312
310
309
308
306
306
306
307
309
311
314
317
321
325
329
333
337
341
344
347
349
351
352
353
353
352
351
349
347
344
341
338
335
332
329
326
323
321
318
316
315
313
312
311
310
310
311
312
315
317
321
324
328
333
336
340
344
347
351
353
356
358
359
359
359
359
357
356
354
352
349
346
343
341
337
335
332
329
326
325
323
321
320
319
320
320
321
322
324
327
329
333
337
341
345
349
353
356
360
363
366
368
369
370
370
370
369
368
366
364
362
359
356
354
351
348
345
342
340
337
336
334
333
332
331
332
332
333
335
338
340
344
348
352
356
360
364
368
371
374
377
379
380
381
381
381
380
379
377
376
373
371
368
366
363
360
358
355
354
351
350
348
347
346
345
345
345
347
348
351
354
357
361
365
369
373
377
381
383
386
388
390
391
392
393
393
392
391
389
388
386
383
381
378
375
373
370
368
366
364
362
361
360
359
359
360
361
362
365
368
371
374
378
383
387
391
395
399
402
404
406
408
408
408
408
407
405
404
402
400
397
394
392
389
386
383
381
379
377
375
373
371
370
369
369
369
370
371
373
375
378
381
385
389
393
397
401
403
406
408
410
411
412
412
412
411
409
407
405
403
400
397
394
391
388
384
381
379
376
373
371
369
367
366
365
365
365
366
367
369
371
374
377
379
383
385
388
391
393
395
396
397
397
397
396
394
392
389
387
384
381
377
373
370
366
362
358
355
352
350
347
345
343
342
342
341
341
342
344
346
349
352
355
359
363
366
369
372
375
376
378
378
378
377
376
374
372
369
366
363
359
355
351
348
344
340
336
333
330
328
325
323
322
321
320
320
320
322
324
326
329
333
337
341
346
350
354
358
362
365
367
368
369
370
370
369
367
366
363
361
358
356
352
349
346
343
340
338
335
333
332
330
329
328
328
328
329
330
331
334
336
339
343
347
351
355
359
362
366
368
371
373
374
375
374
374
372
370
367
364
361
357
353
350
346
343
340
337
335
333
331
330
329
328
329
329
329
331
333
336
339
342
346
350
354
358
362
365
368
370
372
373
373
374
373
372
370
369
366
364
361
359
356
354
351
349
346
344
341
339
337
336
335
334
334
334
334
336
338
340
344
347
351
355
359
363
366
370
372
375
377
379
379
380
380
379
377
375
373
370
367
364
360
356
352
349
345
342
340
338
336
334
333
332
332
332
333
335
337
340
343
347
351
355
360
364
367
371
373
376
378
379
380
380
380
379
378
376
374
371
369
366
363
360
357
354
352
349
347
345
343
341
340
339
339
339
339
340
342
344
348
351
355
360
364
368
372
375
378
381
383
384
385
386
386
385
383
382
380
378
375
372
369
367
363
360
357
355
352
350
349
347
346
345
345
344
345
347
348
350
353
357
360
364
368
372
375
378
381
383
385
386
387
387
388
387
386
384
382
380
377
375
372
369
366
363
361
358
356
354
353
351
350
349
349
349
350
351
353
355
358
361
365
368
372
375
378
381
383
386
387
389
390
390
389
388
387
385
382
380
377
374
371
368
366
363
360
357
354
352
350
348
347
346
346
346
347
348
349
352
355
359
363
367
371
375
379
382
386
388
390
391
392
392
392
391
390
388
386
384
381
378
375
372
369
366
363
360
357
355
353
351
349
348
348
347
348
349
351
354
358
362
366
370
375
379
383
387
390
392
394
396
396
396
396
395
393
391
389
387
384
381
378
374
371
368
364
362
359
357
355
353
352
351
351
352
353
354
357
359
363
367
371
375
380
384
388
392
395
398
399
401
401
401
400
400
398
396
393
390
388
384
381
378
374
372
368
365
362
360
358
356
355
354
354
354
355
356
358
360
363
367
371
375
379
383
387
390
393
396
398
399
400
401
401
400
399
397
396
393
391
388
385
383
380
377
375
373
371
369
368
367
366
365
365
366
367
368
371
374
377
381
386
390
394
399
402
406
409
411
414
415
416
416
417
416
414
413
410
408
405
403
400
396
393
390
387
383
380
377
375
373
372
371
371
371
372
374
376
379
383
387
391
396
401
405
409
413
416
419
422
423
424
425
425
424
423
422
419
417
415
412
409
405
403
400
397
394
391
389
387
385
384
383
383
384
384
386
388
391
394
398
401
405
409
413
417
420
423
426
428
429
429
430
428
427
425
423
420
417
414
410
407
403
400
396
393
390
387
385
383
381
380
379
378
378
378
379
380
382
384
387
391
394
398
401
404
408
411
413
415
417
417
418
418
417
417
415
413
411
408
405
402
399
395
392
389
387
385
383
382
380
379
379
379
379
380
382
383
386
389
392
397
400
405
409
412
415
418
421
423
424
425
426
425
424
423
421
419
416
413
410
407
405
401
399
396
393
391
389
387
386
385
384
384
384
386
387
390
392
396
399
404
408
412
417
420
424
427
430
432
433
434
434
434
433
432
430
428
425
422
419
416
413
409
406
403
400
398
396
394
393
392
391
391
392
394
395
398
400
404
408
412
416
420
425
429
432
435
438
440
441
441
442
441
440
438
436
433
431
428
425
421
419
416
413
410
407
405
403
402
400
400
399
398
398
399
400
402
405
408
413
417
421
426
430
434
438
442
445
448
450
451
452
453
452
452
450
448
446
444
441
438
435
431
428
425
422
419
417
415
414
413
414
414
416
418
422
426
432
438
445
452
460
468
476
484
492
499
506
512
518
524
528
533
536
539
541
542
542
541
539
537
534
530
525
521
516
511
505
500
495
490
486
483
480
478
477
477
478
480
482
485
487
490
492
493
494
493
490
487
482
476
470
463
455
447
439
431
423
416
410
404
398
394
390
386
384
382
382
381
381
383
384
385
388
391
394
398
403
408
414
420
426
433
438
443
448
452
456
458
461
462
463
463
463
462
460
458
455
452
448
445
441
438
434
431
428
424
421
418
416
414
413
411
411
411
412
413
416
419
423
426
431
435
439
443
446
449
451
453
454
455
455
453
452
451
448
446
443
440
438
434
431
427
424
420
417
414
411
409
407
405
404
403
403
403
405
406
409
412
416
420
424
429
433
437
440
444
446
448
449
450
450
449
449
447
445
443
440
437
434
430
428
424
421
417
414
411
408
405
403
401
400
399
399
399
400
402
405
408
412
416
421
425
429
432
436
439
441
443
444
445
445
444
443
441
440
437
435
432
429
426
423
420
417
414
412
409
406
404
402
401
399
399
398
399
400
402
404
407
411
415
420
424
428
432
436
439
442
444
445
446
445
445
444
442
440
437
435
432
430
427
424
421
418
415
412
409
407
405
403
402
401
400
399
400
401
403
406
409
413
417
421
425
430
433
437
440
443
445
446
447
447
446
445
443
441
439
436
433
430
427
424
421
418
416
413
411
409
407
406
404
403
403
403
403
404
407
409
413
416
421
425
430
433
437
441
444
446
447
449
449
448
448
446
444
442
439
437
433
430
427
424
421
418
415
413
410
408
406
404
402
401
401
401
402
403
405
407
410
413
418
422
426
430
433
437
439
442
444
445
447
447
447
447
446
444
442
440
437
435
432
429
426
423
420
417
415
412
410
409
407
407
406
406
407
409
411
414
418
422
426
431
435
439
443
446
450
452
454
456
457
457
456
456
454
453
451
448
445
442
439
435
432
429
426
423
421
419
417
415
415
414
414
414
415
417
419
422
425
430
434
439
443
447
451
454
457
459
461
463
464
463
463
462
461
459
456
454
451
448
445
441
438
435
432
429
426
424
423
421
420
419
419
420
421
422
424
428
431
435
439
443
448
452
455
459
461
464
465
466
467
467
466
466
464
462
460
458
455
452
448
445
442
439
436
433
431
428
427
425
423
423
422
423
423
425
427
429
432
436
439
443
447
451
455
458
461
463
464
465
465
465
463
462
460
458
455
452
449
445
442
437
434
430
427
423
420
417
415
412
410
409
407
406
406
406
407
409
411
413
416
419
422
425
428
430
432
433
433
433
433
432
431
429
426
423
420
416
413
409
406
402
398
394
390
387
384
381
378
376
374
372
371
370
370
371
372
374
376
380
383
387
390
394
397
400
403
405
406
407
407
406
405
403
400
398
395
392
389
385
381
378
374
371
367
364
361
359
356
354
352
351
351
351
351
353
354
356
359
363
366
369
373
377
380
383
385
388
389
390
390
390
390
389
387
385
383
380
377
374
370
367
363
360
357
354
351
349
346
345
343
343
343
343
344
346
348
351
355
359
363
368
372
376
379
383
385
387
389
390
391
390
389
388
386
383
381
377
374
370
366
363
359
356
353
350
347
345
343
341
340
339
339
340
341
342
344
347
351
355
359
363
367
371
375
378
381
383
385
386
387
386
386
385
383
381
378
376
373
370
367
364
361
358
355
353
350
348
346
344
342
341
341
341
341
342
344
347
350
354
358
362
366
369
373
376
379
381
383
384
385
384
383
382
380
379
376
373
370
367
364
360
357
353
350
347
344
341
339
337
336
336
336
336
337
339
341
344
347
351
355
359
362
366
370
373
375
378
379
381
381
380
379
378
376
373
371
368
364
361
358
354
351
347
344
341
338
336
334
332
331
330
330
331
332
334
336
339
343
347
350
354
359
362
366
369
371
374
375
376
376
377
376
375
373
371
369
366
362
359
355
352
348
345
342
339
337
335
333
331
330
329
329
329
330
331
334
336
340
343
347
351
355
359
363
366
368
371
372
373
373
373
372
371
369
367
364
362
358
355
352
348
345
341
338
335
333
330
328
327
326
325
325
325
327
328
331
333
337
340
344
348
352
356
359
363
365
367
369
370
370
370
369
368
366
363
361
357
354
350
347
344
340
336
334
331
328
326
324
322
322
321
321
321
323
324
327
330
334
338
343
347
351
355
359
362
365
367
368
369
369
369
368
367
365
363
360
357
354
351
347
344
341
338
335
332
330
328
327
325
324
324
324
324
325
328
330
333
337
340
344
348
352
355
358
361
363
365
366
367
367
367
366
365
363
361
358
355
352
349
346
342
339
336
334
331
329
326
325
323
321
321
321
321
322
324
327
329
333
336
340
345
348
352
355
358
361
363
365
365
366
365
365
363
362
360
357
354
352
349
346
342
339
336
333
330
327
325
323
321
320
319
319
319
320
322
324
327
330
335
339
343
347
351
355
359
362
364
366
368
369
369
369
368
367
365
363
360
358
355
352
349
345
342
339
336
334
332
329
327
326
325
324
324
325
326
328
331
334
338
342
346
350
353
356
360
362
365
366
368
368
367
367
366
365
363
361
358
355
352
349
346
343
340
336
333
331
329
327
325
324
325
325
326
327
329
332
335
339
343
348
352
357
361
365
369
372
375
378
379
380
380
380
379
377
375
373
370
367
364
360
357
354
351
347
344
341
339
336
334
332
331
330
329
329
330
331
334
336
339
342
346
349
352
355
358
360
361
362
362
362
362
360
358
356
354
351
348
344
342
338
335
332
329
326
324
322
320
318
317
316
316
316
317
319
321
324
327
331
335
340
344
349
353
357
360
363
365
366
366
367
366
365
364
361
359
356
353
350
347
344
341
338
335
332
329
327
325
323
321
320
319
319
319
320
322
324
327
331
335
339
343
348
352
356
358
361
363
364
365
365
365
363
361
359
357
354
351
347
344
341
338
335
332
329
326
324
322
320
319
317
316
316
316
317
318
321
324
328
332
336
340
345
349
353
356
358
361
362
363
363
362
361
360
358
356
353
350
346
342
338
335
332
329
325
323
320
318
317
315
315
314
314
315
316
318
320
323
327
331
335
339
343
347
350
353
356
357
359
359
360
359
358
357
355
353
350
348
345
342
339
337
334
332
330
328
326
325
324
323
322
322
322
323
324
326
329
332
336
340
345
350
355
360
365
370
374
378
382
385
389
392
394
397
399
401
403
404
405
407
408
410
411
412
414
415
416
417
418
418
418
418
417
416
416
416
415
416
416
416
416
417
417
418
418
419
419
420
420
419
418
417
416
413
410
406
401
394
387
379
369
360
350
340
330
321
312
304
297
291
286
282
280
279
279
280
282
286
290
295
301
307
314
320
326
331
336
340
344
347
350
351
353
353
353
353
351
350
348
345
343
340
338
335
333
330
328
325
324
322
320
319
318
319
319
320
322
325
327
330
334
337
341
344
347
350
353
355
357
359
359
358
358
356
354
353
350
347
344
341
338
334
331
328
325
322
320
318
316
314
313
312
312
313
314
315
317
320
323
327
331
335
339
343
347
350
353
355
357
358
358
358
358
357
355
353
351
349
346
343
340
337
334
331
328
325
323
321
319
318
316
316
315
316
317
318
321
324
327
331
335
339
344
347
351
354
356
358
360
360
361
361
360
359
358
355
353
350
348
344
341
338
335
333
330
327
325
323
322
319
318
318
318
318
319
321
323
326
330
333
337
342
346
349
353
356
358
360
361
362
362
361
361
359
357
355
352
350
347
344
341
337
334
331
328
326
324
322
321
320
319
319
319
320
321
323
326
329
333
337
341
346
350
354
357
360
362
363
364
364
365
364
362
361
359
357
353
351
347
345
341
338
335
333
330
328
326
324
323
322
321
321
321
322
323
325
327
330
334
338
342
347
351
354
358
361
364
366
367
368
368
367
366
365
363
361
358
356
353
350
347
344
341
338
336
333
331
329
328
326
326
326
326
327
329
331
335
338
342
346
350
355
359
363
366
369
372
373
375
376
376
376
375
375
373
371
369
367
364
361
358
356
352
349
346
344
342
340
338
337
335
334
334
335
336
337
340
343
347
351
355
359
364
368
371
374
377
380
382
383
384
384
383
382
381
379
377
374
371
369
366
363
360
358
355
353
351
349
348
346
346
345
345
346
348
350
352
356
360
365
370
374
378
383
387
390
393
396
398
399
400
400
400
399
397
395
392
390
386
383
380
377
374
371
369
367
364
362
360
359
359
359
359
360
362
364
368
371
374
379
383
387
391
395
398
401
403
405
406
407
407
407
406
404
402
400
398
395
392
390
387
385
382
380
377
375
373
372
371
370
370
369
370
371
373
374
377
380
384
387
391
395
398
401
404
407
408
409
410
410
410
410
409
408
406
404
402
399
396
393
390
386
383
380
377
375
372
369
367
365
363
362
361
361
361
363
364
367
369
372
376
379
383
385
388
391
392
394
394
394
393
392
390
388
385
382
379
375
371
367
364
359
356
352
349
345
342
339
338
335
334
333
332
333
333
334
335
337
340
343
346
349
353
355
358
360
362
363
364
364
363
362
361
359
357
354
351
348
344
340
337
333
329
325
322
319
316
313
311
309
308
308
307
307
308
310
312
315
318
322
326
330
333
337
341
344
346
348
349
350
350
350
349
348
346
344
341
338
335
332
328
325
322
318
315
312
310
308
305
305
303
302
302
302
303
304
306
309
313
316
320
324
327
331
334
336
338
341
342
342
342
342
341
339
337
335
333
330
328
324
322
318
315
313
310
307
305
304
301
300
299
299
299
300
301
303
305
308
312
316
320
324
328
332
335
338
340
341
342
343
342
342
341
340
338
336
334
330
328
325
322
319
316
313
310
308
306
304
302
302
300
300
300
300
301
303
306
309
313
317
322
326
330
334
337
340
342
344
346
347
347
346
345
344
342
340
337
335
332
330
327
324
322
319
317
315
314
312
311
309
309
308
308
309
310
312
314
317
320
324
327
331
335
338
341
343
346
347
349
350
350
350
349
348
346
345
342
340
337
334
331
327
324
321
318
315
313
311
309
308
307
307
307
308
308
310
312
316
319
323
327
331
336
338
342
344
347
348
350
350
350
349
348
347
344
342
340
337
334
331
328
325
322
319
316
314
312
310
309
308
307
307
307
308
309
311
314
317
321
325
330
334
338
341
345
348
351
352
354
355
354
353
352
350
347
344
341
338
334
331
328
325
322
320
317
315
314
312
311
310
309
309
309
310
311
314
316
319
323
327
332
336
340
343
347
350
352
354
355
355
355
354
353
352
349
347
344
341
338
335
332
329
325
323
320
317
315
312
311
309
308
307
307
308
309
311
314
318
322
326
330
334
338
342
345
348
350
352
353
354
354
353
352
350
347
345
342
339
336
333
329
326
323
320
317
315
313
311
309
308
308
308
308
309
311
313
316
320
323
327
331
335
339
343
346
349
351
353
354
354
355
354
353
351
349
346
343
340
336
333
329
325
322
318
315
312
310
308
306
305
304
303
304
304
306
307
310
313
317
321
325
329
333
336
339
342
344
346
347
348
348
347
347
346
344
342
340
338
335
333
330
327
324
321
318
315
313
311
310
308
308
308
308
309
310
312
315
318
322
326
330
333
337
341
344
347
349
351
352
353
353
352
352
350
348
346
343
340
337
334
331
328
325
322
320
318
316
313
312
310
309
309
309
310
311
314
317
320
324
328
332
336
341
345
348
351
354
355
357
357
357
357
356
354
353
350
348
345
342
339
336
333
330
327
324
322
319
317
315
315
314
313
313
314
315
317
320
323
327
331
336
341
345
349
353
356
358
361
362
363
363
362
361
359
357
355
352
350
346
343
340
336
333
330
327
325
323
322
320
320
320
320
320
322
324
327
329
333
337
341
345
349
353
356
359
362
364
365
366
367
367
366
365
363
361
358
356
353
350
347
344
341
338
336
333
331
329
327
325
324
323
323
323
324
326
328
331
335
339
344
348
352
356
360
364
367
369
372
373
374
374
374
374
373
372
370
368
366
364
362
359
357
354
352
350
348
346
344
343
341
341
340
340
341
342
344
347
349
353
356
360
363
367
370
372
375
376
378
378
378
378
376
374
373
371
368
365
362
359
356
352
349
346
343
341
338
335
333
331
329
328
327
327
328
329
331
334
336
340
343
347
350
354
357
360
362
364
365
366
366
366
365
363
361
359
356
353
350
346
343
340
337
334
331
328
325
323
321
319
318
316
316
316
316
317
319
321
325
328
332
336
340
344
347
350
353
355
357
358
359
359
358
357
356
354
352
349
346
343
339
336
332
329
326
323
321
319
317
315
315
314
314
314
315
317
319
323
326
331
335
340
344
348
351
354
357
359
360
360
361
360
360
358
356
354
352
349
346
342
339
335
332
328
325
322
320
318
316
315
314
313
313
314
315
316
319
322
325
329
333
338
342
346
350
353
356
358
360
361
361
361
360
359
358
355
352
350
347
344
341
338
335
332
329
327
324
322
321
319
318
318
318
318
319
321
323
326
330
334
338
342
346
351
355
358
362
365
367
369
369
370
369
369
368
366
365
363
360
357
355
353
351
349
348
348
348
348
349
350
352
354
357
362
366
372
379
386
394
402
411
420
428
436
444
451
458
464
468
472
475
476
476
475
473
469
465
460
454
448
441
434
427
420
413
407
402
397
393
391
388
387
385
385
385
386
387
387
388
388
387
386
384
382
379
375
372
368
364
360
356
352
348
345
342
338
336
333
331
328
326
324
323
321
320
319
318
318
318
318
319
320
321
323
326
328
332
336
341
346
351
356
361
366
370
373
376
378
380
380
380
379
378
376
373
371
368
365
362
358
355
351
348
345
342
340
337
336
333
332
331
329
329
329
330
332
334
337
340
344
348
352
356
360
363
366
369
371
372
373
374
374
373
372
371
368
366
363
360
357
354
351
348
345
342
340
337
335
334
333
332
331
332
332
334
336
339
342
346
350
354
358
362
366
370
373
376
378
379
380
380
380
380
378
376
374
372
369
366
364
361
358
355
353
350
348
346
343
342
340
339
339
339
339
341
342
344
348
351
355
359
363
367
371
374
377
380
382
383
384
384
384
383
382
380
378
375
373
369
367
363
360
357
354
352
350
348
346
345
344
343
343
343
344
345
347
349
352
356
360
364
368
372
376
379
382
385
387
388
389
389
389
388
386
384
382
380
377
374
371
368
365
362
359
356
354
351
349
348
346
345
344
345
345
347
349
351
355
359
363
368
372
376
380
384
387
390
392
393
394
395
394
394
392
391
388
386
383
380
376
373
369
366
363
360
358
355
353
351
350
349
348
349
350
351
353
355
358
362
366
370
375
379
383
386
389
392
394
395
396
397
396
396
394
393
391
389
386
383
380
377
375
372
368
366
363
361
359
358
357
356
356
356
356
358
360
363
366
369
374
378
382
386
390
393
397
399
401
402
402
403
402
402
400
398
396
394
391
388
385
382
379
377
374
372
370
369
367
365
364
364
364
365
366
367
370
372
375
379
384
388
393
397
401
404
408
410
412
414
415
415
415
414
413
412
410
408
406
403
400
398
394
392
389
386
384
382
380
378
377
376
376
376
377
378
380
383
386
390
394
398
402
406
410
414
417
420
422
424
424
425
425
424
423
421
419
417
414
412
409
406
403
400
398
396
394
392
391
390
389
388
388
388
389
390
392
395
397
401
404
408
412
416
420
422
426
428
430
431
432
432
431
431
429
427
424
422
419
416
413
410
407
404
401
398
396
393
391
389
388
387
387
386
387
388
391
393
396
400
403
408
411
415
419
422
424
427
428
430
430
430
429
428
426
425
422
419
416
412
409
405
401
397
394
390
386
383
380
378
375
373
372
371
371
371
372
373
375
378
381
385
388
392
395
398
400
402
403
404
404
403
402
401
398
395
392
389
385
381
377
373
368
364
360
356
353
350
347
345
342
341
339
339
339
340
341
344
346
349
352
356
359
362
365
368
371
372
374
374
374
373
372
371
368
366
363
360
356
353
349
346
342
338
336
332
330
327
325
324
322
321
320
320
320
321
323
325
327
330
334
338
341
345
349
352
355
357
359
360
360
360
359
358
356
354
352
349
346
343
340
336
333
330
327
325
322
320
319
317
316
316
315
315
315
317
318
320
322
326
329
333
337
340
344
347
349
351
353
355
355
355
355
354
353
351
348
346
343
340
336
333
329
326
323
321
318
316
314
312
310
309
309
309
310
311
313
316
319
322
326
330
335
339
342
346
348
351
353
354
355
356
356
356
354
353
351
349
346
343
340
336
333
330
326
324
321
319
317
315
314
313
312
312
313
314
316
318
321
324
328
332
336
340
344
347
350
353
355
357
358
358
357
356
355
352
350
348
345
342
339
336
333
331
328
325
323
321
319
318
316
316
315
316
317
318
320
323
327
331
335
339
344
348
352
355
358
362
364
366
367
367
367
366
365
363
361
358
355
352
349
346
343
340
338
335
333
331
329
327
326
325
325
325
326
327
330
332
335
339
343
348
352
356
359
362
365
368
370
371
372
372
372
371
370
368
366
364
362
359
356
352
349
346
342
339
336
334
332
330
329
328
327
327
327
329
331
334
337
341
346
350
354
359
363
366
370
372
374
376
376
377
376
375
373
371
369
366
363
360
356
353
350
347
344
341
339
336
335
333
332
331
331
331
332
333
335
338
341
345
349
353
358
362
366
369
372
374
375
377
377
378
377
376
375
374
371
369
366
364
360
358
355
352
350
347
345
342
340
338
336
335
335
334
335
336
337
340
343
347
351
355
359
363
366
369
372
374
376
377
378
378
377
376
375
373
371
368
365
362
359
356
353
350
347
344
341
339
337
335
334
333
332
332
333
334
336
338
341
345
348
352
356
360
363
366
369
371
373
375
376
376
376
376
375
373
371
370
367
365
362
359
355
352
350
346
344
342
340
338
337
335
335
335
336
338
340
343
346
350
354
358
362
366
370
373
375
377
378
379
380
380
379
378
377
375
373
370
368
365
362
358
355
352
348
345
343
340
338
336
335
333
333
333
334
336
338
341
345
348
352
356
361
365
368
371
374
376
377
378
379
378
377
376
374
372
370
367
364
361
358
355
352
348
345
342
340
337
335
334
332
332
331
332
332
334
336
339
342
346
350
355
359
364
368
371
374
376
378
380
380
380
379
378
376
374
371
368
365
361
358
354
351
347
344
341
338
336
334
332
330
329
329
329
329
331
333
335
338
341
345
349
353
356
360
363
366
368
370
371
372
372
371
370
368
366
364
361
358
355
352
349
346
343
340
338
335
332
331
329
328
327
327
327
329
331
333
336
339
342
346
351
354
358
362
365
368
370
372
374
374
375
374
373
372
370
368
365
361
358
355
352
349
346
343
340
338
336
334
332
331
330
329
329
329
331
332
335
338
342
346
350
354
358
362
366
370
373
375
377
378
379
379
379
378
376
375
372
370
367
364
361
358
355
352
349
347
345
343
341
340
340
339
339
340
341
343
346
349
353
357
361
364
368
371
374
376
378
379
380
381
380
380
378
376
374
371
369
365
362
359
355
352
349
346
343
340
337
335
334
332
331
330
330
331
332
334
336
339
343
347
350
354
357
360
363
365
366
367
368
368
367
366
364
362
359
356
353
349
345
342
338
334
331
328
325
323
321
320
319
318
318
319
319
321
322
325
328
332
335
339
344
348
352
356
359
361
363
364
365
365
365
364
363
361
359
356
353
349
346
342
339
336
332
329
326
323
321
319
317
316
315
314
314
315
317
319
321
325
328
333
336
340
344
348
350
353
355
357
358
359
359
359
358
356
355
352
350
347
344
341
338
335
333
329
327
324
322
319
318
316
315
314
315
315
317
319
321
324
327
332
336
340
343
347
350
352
354
356
357
358
358
357
356
354
352
350
347
345
341
339
336
333
330
327
325
323
321
320
319
318
318
318
319
320
322
324
327
331
335
338
342
346
351
354
358
360
363
365
365
366
366
364
363
361
359
356
353
350
348
345
342
339
336
334
332
330
328
327
325
325
324
324
324
326
327
330
333
337
341
346
352
357
363
368
374
380
385
389
394
398
402
405
409
411
414
416
417
418
420
421
422
423
424
425
425
425
425
424
423
422
421
419
418
417
415
414
414
414
414
415
416
416
417
418
420
421
421
421
421
420
418
416
412
408
403
397
389
381
373
363
354
344
335
326
318
311
304
299
294
290
288
286
286
286
288
291
294
299
304
310
316
322
328
333
338
343
347
350
353
355
356
357
357
357
356
354
352
349
347
344
341
338
335
333
330
328
326
324
322
320
319
319
319
318
319
320
322
325
328
332
335
339
342
346
349
352
354
356
357
358
358
358
357
356
355
352
350
347
344
341
338
334
332
329
326
324
322
321
319
319
318
317
318
319
320
322
324
327
330
334
338
342
346
349
352
355
357
359
360
361
361
360
359
358
356
354
352
349
346
344
341
338
336
333
331
328
327
325
323
322
321
321
321
322
324
326
329
332
336
340
344
348
352
355
358
361
363
364
365
365
365
364
363
362
359
357
354
351
349
345
342
339
336
333
332
329
327
325
325
323
323
323
324
325
327
330
334
337
341
346
350
354
358
361
364
367
369
370
372
372
372
372
371
369
368
366
363
360
358
354
351
348
346
343
341
338
336
335
333
332
332
331
332
333
335
337
340
343
347
351
354
358
361
364
367
370
371
373
374
374
374
374
373
371
370
367
365
362
359
356
353
350
347
345
342
340
339
337
336
335
334
335
335
336
337
340
342
346
349
353
358
362
366
370
373
376
378
380
381
381
382
381
381
379
377
374
372
368
365
362
359
356
353
350
348
346
344
342
341
340
339
339
340
341
342
345
348
351
355
360
364
368
372
376
379
382
384
385
386
387
387
386
384
383
381
378
376
373
370
367
364
360
358
355
353
351
349
348
347
346
346
346
346
348
350
352
355
359
363
367
371
375
379
383
386
388
391
392
394
394
394
393
391
390
388
385
383
380
378
375
373
370
368
365
363
361
360
358
357
356
356
356
357
358
360
363
365
369
373
377
381
385
389
393
397
399
401
403
404
405
405
404
404
402
400
397
395
392
389
386
384
380
378
375
373
370
368
367
365
364
364
364
365
366
368
371
374
377
382
386
390
394
399
402
405
408
411
413
414
414
414
414
412
410
408
405
403
400
396
393
390
387
384
381
379
376
374
372
371
370
370
370
370
372
374
376
380
383
388
392
395
400
404
407
410
413
415
416
417
417
417
416
415
413
411
408
405
402
399
395
392
388
385
382
379
376
374
372
370
369
368
369
369
369
371
373
375
378
382
385
389
392
395
398
400
402
403
404
405
404
403
402
399
397
394
390
387
383
380
375
372
368
364
360
356
353
350
347
345
343
341
340
339
339
340
341
343
346
349
352
355
358
361
364
366
368
369
370
371
371
370
369
367
365
363
359
356
352
349
345
341
338
334
331
328
325
322
320
319
317
317
316
316
318
318
320
323
327
330
335
339
343
346
350
353
355
357
358
359
360
359
358
357
356
354
351
348
346
342
339
336
333
329
326
323
321
318
316
314
313
312
311
311
312
314
316
319
323
327
331
336
340
345
349
352
355
358
360
361
362
362
361
360
358
356
354
352
349
346
342
340
336
334
330
328
326
324
322
320
319
318
317
318
319
321
323
327
331
335
339
344
349
353
357
360
363
366
368
369
370
369
368
367
365
363
360
357
353
350
347
343
340
337
334
331
328
326
324
322
321
321
321
321
322
324
327
331
335
339
344
349
354
358
362
366
369
371
373
374
375
374
374
372
370
367
364
361
357
355
351
348
344
341
338
336
334
332
330
329
328
327
327
328
329
331
333
336
339
343
348
352
356
361
364
368
371
373
375
376
377
376
376
374
373
371
368
365
362
359
356
353
349
346
344
341
339
337
335
334
333
333
333
333
335
336
339
342
346
350
354
359
364
368
371
375
378
380
382
383
384
384
383
382
380
379
376
373
370
367
363
360
357
354
351
348
345
343
341
340
339
338
338
338
339
341
344
347
351
355
360
364
369
374
378
381
384
387
389
390
390
390
389
388
386
384
381
378
374
371
367
364
360
357
354
351
348
346
345
344
343
343
343
344
346
348
351
354
358
362
367
371
376
379
383
386
388
390
392
393
393
392
392
390
389
387
384
382
378
375
371
368
364
361
357
355
352
349
347
346
344
344
344
344
346
348
351
354
359
363
368
373
377
382
386
389
392
395
396
397
397
397
396
395
393
390
388
385
382
379
376
372
369
366
363
360
357
355
353
351
350
349
350
350
351
353
355
358
362
365
369
374
378
382
385
388
391
393
394
395
395
395
394
392
390
387
384
381
378
375
371
368
365
361
358
355
352
350
348
347
346
345
346
346
347
349
351
355
358
362
366
369
373
377
380
384
386
389
390
392
392
392
391
390
389
387
384
382
379
376
373
370
366
364
360
358
355
352
350
349
347
347
347
347
348
350
352
356
359
364
369
373
377
381
385
388
390
393
394
395
395
395
394
392
390
388
385
382
379
376
372
368
365
362
359
356
353
351
349
348
347
346
346
347
349
351
353
356
360
364
368
372
376
380
384
387
389
391
393
394
394
394
393
391
389
387
384
381
378
375
372
368
365
361
358
355
353
351
348
347
345
345
344
345
346
348
350
353
357
361
365
369
374
378
382
385
388
390
391
392
392
392
391
389
388
385
383
380
376
373
370
366
363
360
357
354
351
349
347
346
345
345
345
345
347
349
352
355
359
363
367
371
376
380
383
386
389
391
393
394
395
395
394
393
392
390
388
385
382
380
376
373
370
368
364
362
359
357
356
354
354
353
353
354
355
357
360
363
367
371
376
380
385
389
392
395
398
400
401
402
403
403
402
401
399
397
394
391
387
384
380
377
373
369
366
363
361
359
357
356
355
355
355
356
358
360
364
367
372
377
382
387
392
396
400
404
407
410
412
414
414
414
414
412
410
408
405
402
399
396
392
388
385
382
378
375
373
370
369
367
366
365
365
367
368
370
373
376
380
384
388
391
395
399
402
404
407
408
410
410
410
410
409
407
405
402
399
396
392
389
385
382
378
375
371
368
365
363
360
358
357
356
356
356
357
358
361
364
367
370
374
378
382
385
389
391
393
395
396
397
397
396
396
394
392
390
387
384
381
377
373
370
366
363
360
357
355
353
351
349
348
348
348
349
350
352
355
358
362
366
371
375
379
383
386
389
391
394
395
395
396
395
394
393
391
388
385
383
379
376
373
369
366
363
360
357
355
352
350
348
347
346
346
347
348
349
352
355
359
363
368
372
377
381
384
387
390
392
394
395
395
395
394
393
391
388
386
383
380
376
373
370
366
363
360
357
354
352
350
349
348
347
347
348
350
352
354
358
362
366
371
375
380
384
388
391
394
397
398
399
399
399
398
397
395
393
390
387
383
380
376
373
370
366
363
361
358
356
354
352
351
351
351
351
353
354
357
361
365
370
373
378
382
386
390
393
396
398
399
401
401
402
401
401
400
398
396
394
391
388
386
383
380
377
374
372
369
367
365
364
363
362
362
363
365
368
372
377
382
389
395
402
409
417
423
430
437
444
449
455
460
464
468
470
473
475
477
478
479
480
480
479
478
477
475
471
469
466
463
460
456
453
450
448
446
445
444
445
446
448
450
452
455
457
460
462
463
464
464
462
459
455
450
443
435
426
417
407
397
388
379
370
362
355
348
343
338
334
331
329
329
329
330
332
335
338
342
348
354
360
367
373
380
386
391
397
401
405
408
410
411
412
412
411
410
408
406
403
400
396
393
388
385
381
377
374
371
368
366
364
362
361
361
361
362
364
366
369
373
377
381
385
390
393
397
399
401
403
404
404
404
403
402
400
398
396
393
390
387
383
380
376
372
369
366
363
360
358
356
355
354
354
355
356
358
360
363
367
371
375
380
384
389
393
396
399
402
404
404
405
404
403
401
400
397
394
392
388
384
381
377
374
370
368
364
362
360
358
356
355
354
354
355
355
357
359
362
366
370
374
379
383
387
391
395
398
400
402
403
404
404
404
403
402
399
397
394
392
388
385
381
378
375
372
369
366
364
362
360
359
358
358
358
359
360
362
365
369
373
377
382
386
390
394
398
401
403
405
407
407
407
406
406
404
401
399
395
392
388
385
381
378
374
371
368
366
363
361
360
358
357
357
357
357
359
361
363
367
371
375
379
383
388
391
395
399
401
403
404
405
404
404
402
401
399
396
393
390
387
385
381
378
375
372
369
366
364
361
359
358
356
356
356
357
358
360
363
366
370
375
379
383
387
390
393
396
399
401
402
403
403
403
402
400
398
396
393
391
387
384
380
377
374
370
368
365
363
361
359
358
357
357
357
358
359
362
365
368
373
377
381
385
389
393
396
399
401
403
404
405
405
405
404
402
400
398
395
392
389
386
383
379
377
374
371
369
367
365
364
363
362
362
362
363
365
366
369
373
377
380
385
389
393
397
401
404
406
408
409
409
409
408
407
406
404
401
398
395
391
388
385
382
378
376
373
371
369
368
367
366
365
366
367
367
369
371
375
378
382
386
391
395
399
403
406
409
412
414
415
416
417
416
415
414
412
410
407
404
400
397
393
390
386
383
380
377
375
373
372
370
370
369
369
371
372
375
378
382
386
391
395
400
404
408
412
415
417
419
420
420
420
419
418
416
414
411
409
406
402
399
396
393
389
386
383
381
378
376
374
373
372
371
371
371
373
374
377
380
384
388
392
395
399
403
405
408
410
412
413
413
413
412
410
408
406
404
401
398
395
392
389
385
383
379
377
373
371
368
366
365
363
362
362
362
362
364
366
368
371
374
378
381
384
387
389
391
392
393
393
393
392
390
388
386
383
380
375
372
368
363
359
354
350
346
342
338
335
333
329
327
325
325
324
324
325
326
328
331
334
338
342
345
349
352
355
357
359
360
361
361
360
359
357
354
352
348
345
341
338
334
330
326
323
319
316
313
310
308
306
305
304
303
303
304
304
306
308
312
315
319
322
326
330
333
336
339
341
342
343
343
343
342
340
338
336
333
331
327
324
321
318
315
312
309
307
304
301
299
297
296
295
294
294
295
297
299
302
305
309
313
317
320
324
327
330
333
335
337
337
338
338
337
337
335
333
331
328
324
321
319
315
312
309
306
303
301
299
297
296
294
294
293
294
295
297
299
302
305
309
313
318
322
326
330
334
337
339
341
343
343
343
343
342
340
338
336
333
330
327
324
321
318
315
312
309
307
305
304
302
301
300
300
300
301
302
304
307
311
314
318
323
326
330
334
337
340
343
345
346
347
347
346
345
343
341
339
336
333
331
328
325
322
319
316
313
310
308
306
305
304
303
303
304
305
307
310
313
317
321
325
329
333
336
340
343
346
348
349
350
350
350
349
347
346
343
341
339
336
333
329
326
322
319
316
313
310
307
306
304
303
303
303
303
305
306
309
312
316
320
324
328
332
336
340
343
346
348
349
350
350
349
349
347
345
342
339
336
334
330
327
323
320
317
314
312
309
307
305
304
303
302
302
302
303
305
307
310
314
318
321
326
330
334
338
341
343
345
346
347
347
347
346
345
343
341
338
335
332
329
326
322
319
316
314
311
309
307
305
303
302
301
301
301
303
304
306
309
312
316
320
324
328
333
336
340
342
344
346
347
347
347
346
345
343
340
337
334
331
327
324
320
317
314
312
309
307
305
304
303
302
301
301
302
303
305
307
310
314
317
321
325
330
334
337
340
342
344
345
346
346
345
344
343
341
338
335
332
329
326
322
319
316
312
310
307
304
303
301
300
299
298
298
299
300
302
304
306
310
314
318
322
325
329
333
336
339
341
343
344
345
345
344
343
341
338
336
333
330
326
323
320
318
314
312
310
307
305
304
302
300
299
299
299
300
302
304
307
311
315
319
324
328
332
335
338
341
342
344
345
345
345
345
343
341
339
337
334
331
328
325
322
318
315
312
310
308
306
304
302
302
301
301
301
303
305
307
311
314
318
323
327
331
335
338
341
343
345
347
348
348
348
347
346
344
342
339
336
333
330
326
323
319
317
313
310
307
305
303
301
301
300
300
301
301
303
306
309
313
317
321
325
329
333
337
340
343
345
347
348
348
348
347
346
344
342
339
336
334
331
327
324
322
319
316
313
311
309
307
305
304
303
303
303
304
306
309
312
316
321
325
330
334
338
342
346
349
351
353
354
354
354
353
352
350
347
344
341
337
333
330
325
322
318
315
312
310
308
306
304
303
303
303
303
305
306
309
312
315
319
324
328
333
336
340
344
347
349
351
352
353
353
352
352
350
349
347
345
342
339
336
334
331
328
325
323
321
319
317
316
315
314
314
315
316
318
321
324
327
331
335
339
343
348
352
355
358
360
362
363
363
364
362
361
359
357
354
351
348
344
341
337
334
330
327
324
322
319
318
316
314
314
313
314
315
316
318
320
324
327
331
334
338
341
344
347
350
352
353
354
354
353
353
351
350
347
345
341
338
335
331
327
324
320
318
315
312
310
307
305
303
302
301
302
302
304
306
309
312
316
320
324
328
332
335
338
341
343
344
345
345
344
344
342
340
337
335
332
328
325
322
319
315
312
309
307
304
302
301
299
298
297
297
297
298
300
303
306
309
313
317
321
325
329
332
335
337
339
341
341
341
341
340
339
337
335
332
330
327
324
321
317
315
311
309
306
304
301
299
298
296
295
295
295
296
298
300
303
306
310
314
319
323
327
331
334
337
338
340
341
341
340
340
338
336
334
331
328
325
322
319
315
312
309
306
304
302
300
298
297
296
296
296
297
298
300
302
305
309
312
316
320
324
328
331
334
337
339
340
341
341
341
340
338
336
333
330
326
323
319
316
312
309
306
303
301
298
296
294
293
293
293
294
295
297
300
303
307
312
316
322
327
333
337
342
346
349
352
354
355
355
355
354
352
350
347
344
341
338
335
333
331
329
327
327
326
326
327
327
329
331
335
338
343
349
354
361
368
376
385
393
402
410
417
424
430
435
439
442
443
443
442
440
437
433
428
423
417
411
405
398
392
386
380
375
371
367
363
360
357
354
352
350
349
347
345
344
341
339
337
334
332
329
326
324
321
319
317
314
312
309
308
306
304
302
300
299
297
296
295
293
293
292
292
291
291
291
291
291
292
293
294
296
299
301
305
309
314
318
323
328
333
337
341
345
348
350
352
353
354
353
353
351
349
347
344
341
338
335
331
328
324
321
318
315
312
310
307
306
304
304
303
304
305
306
308
311
315
318
323
327
331
335
340
343
346
349
351
352
353
353
352
351
349
347
345
343
340
337
334
331
328
325
321
319
316
313
311
309
308
307
307
308
308
310
312
315
318
322
326
330
334
338
342
345
348
350
352
353
354
354
353
352
351
349
347
345
342
339
336
333
329
326
322
320
317
314
313
311
309
309
308
309
309
311
313
315
319
322
327
331
335
339
343
346
350
352
354
356
357
357
357
356
355
353
351
348
345
342
339
336
333
330
327
324
322
320
318
317
315
315
314
314
315
317
319
322
325
329
333
337
341
345
349
352
355
357
359
359
360
360
359
358
356
355
352
350
347
343
340
337
334
331
328
326
323
321
319
318
317
317
316
316
317
318
320
322
325
329
333
337
342
346
350
353
356
359
361
363
364
364
363
362
361
360
358
356
353
351
347
344
341
338
335
333
330
328
325
324
322
321
321
320
321
322
324
327
330
334
338
342
346
350
354
357
360
363
365
367
367
368
367
366
365
364
362
359
357
355
352
348
345
343
340
338
336
333
332
331
330
329
329
330
330
332
334
336
340
343
348
352
357
361
365
369
372
374
376
378
378
378
378
377
376
374
372
369
366
364
360
357
355
352
349
347
345
343
342
341
340
339
339
339
340
342
345
347
351
354
358
362
367
371
375
379
383
386
388
389
391
392
391
391
390
388
386
384
381
378
375
373
370
367
364
362
359
357
355
354
353
352
352
352
354
355
357
360
364
368
372
376
381
385
389
392
395
398
400
402
403
403
403
402
401
399
397
394
391
388
385
382
379
376
373
371
368
366
364
363
361
360
360
360
362
363
365
369
372
376
380
384
389
392
396
399
402
405
406
408
408
408
408
407
405
403
402
399
397
394
391
389
385
382
379
376
373
370
368
366
365
364
364
363
364
365
367
370
373
377
381
384
388
392
395
398
401
403
404
405
405
405
404
403
401
398
395
392
388
385
381
377
374
370
367
363
360
357
354
351
349
347
346
346
345
345
347
349
351
354
357
360
363
366
368
371
373
374
374
374
373
372
371
369
366
363
360
357
353
349
345
341
337
334
330
327
323
320
318
316
314
314
312
312
313
313
315
318
321
324
328
332
336
339
343
346
348
350
351
352
352
352
351
349
347
345
341
337
334
329
325
321
317
313
309
306
303
301
298
296
295
294
294
294
296
297
300
303
306
310
314
318
322
326
329
332
335
337
339
340
340
340
340
339
337
334
332
329
326
323
320
317
314
311
308
305
302
300
297
296
294
293
293
293
294
295
297
300
303
307
311
315
319
323
327
331
334
336
337
338
339
339
338
337
335
333
330
327
324
321
318
315
312
309
306
304
302
300
298
297
296
295
295
296
297
298
300
302
306
309
313
317
321
324
328
331
334
336
338
339
339
339
338
336
334
332
329
327
324
320
317
315
312
310
307
305
303
302
300
299
298
297
297
297
298
300
302
304
307
311
315
319
324
328
331
334
336
339
340
341
341
341
340
339
337
335
333
329
326
323
320
317
313
310
307
305
302
300
298
297
295
294
294
294
295
297
300
302
306
310
314
318
322
326
329
333
335
337
339
341
341
342
341
340
339
337
334
332
329
326
322
320
316
313
311
308
306
304
302
300
299
298
298
298
299
301
303
306
309
313
317
320
325
328
331
334
337
339
341
342
342
343
343
341
340
338
336
333
329
326
323
319
316
313
310
307
304
302
300
299
298
297
297
298
299
301
303
306
309
313
317
321
326
330
333
337
339
341
343
344
345
345
344
343
341
339
336
334
331
327
324
321
318
315
312
310
307
305
303
301
300
299
299
299
300
301
303
306
310
313
318
322
326
330
333
336
339
341
343
344
344
344
343
342
340
338
335
333
330
327
324
321
318
315
312
310
307
305
304
302
301
300
300
300
301
302
304
307
310
314
318
322
326
330
334
337
340
342
344
345
345
345
345
344
342
340
337
335
332
328
325
322
318
315
311
308
305
302
300
298
298
296
296
296
297
299
301
304
307
311
315
319
323
327
331
334
337
339
341
342
343
343
343
342
340
338
336
334
331
328
325
322
319
316
313
311
308
306
304
302
301
301
300
301
301
303
304
307
310
314
318
322
326
330
333
336
339
341
343
344
344
344
344
342
341
339
336
334
331
327
325
322
319
316
314
311
309
307
305
304
302
302
301
302
302
304
306
309
312
316
320
324
328
332
336
339
342
344
346
347
349
349
348
347
346
344
342
339
336
333
330
327
325
321
319
316
314
311
310
309
307
306
306
306
307
308
310
312
316
320
324
328
332
336
339
343
345
348
350
351
351
351
350
349
347
345
342
339
336
333
331
328
325
322
319
317
314
313
310
309
308
307
307
308
309
311
313
316
320
323
327
332
336
340
344
347
350
353
354
356
357
357
357
356
355
352
351
348
345
343
340
337
333
331
328
325
323
321
319
318
317
317
317
317
318
319
322
325
328
332
336
341
345
349
352
356
358
361
362
364
364
364
363
362
360
358
355
352
349
346
342
339
336
333
331
329
327
325
324
323
323
323
324
325
327
329
332
335
339
343
347
352
356
359
363
366
368
371
373
374
375
375
374
373
372
370
368
365
362
359
356
352
349
346
343
340
337
335
334
332
331
330
330
330
331
333
335
338
341
345
348
353
357
361
364
367
370
372
373
374
374
374
373
371
370
367
364
362
358
355
352
348
344
341
338
335
332
330
327
326
324
322
321
321
321
322
324
326
329
332
336
340
344
347
351
353
356
358
359
360
360
359
358
357
355
353
350
348
345
342
339
336
334
331
328
326
323
321
319
318
316
316
316
316
317
319
321
324
328
332
336
340
344
348
352
355
358
360
361
363
364
363
363
361
360
358
355
352
349
346
342
339
336
333
330
328
325
323
322
320
320
319
319
319
320
322
324
327
330
334
338
343
347
351
355
358
361
363
365
366
366
365
365
363
361
359
356
354
351
348
345
342
338
336
333
330
328
326
324
323
322
321
322
322
323
324
327
330
334
338
342
347
351
355
359
362
364
367
368
369
369
369
369
368
366
364
361
358
355
352
349
346
343
340
337
335
333
331
329
328
327
326
326
326
327
328
331
335
338
342
347
351
356
360
364
368
371
374
376
378
379
380
379
378
376
374
372
369
366
363
360
357
354
352
350
349
348
347
347
348
349
351
354
358
362
368
373
381
388
396
405
413
422
430
438
446
454
460
466
471
474
476
477
476
475
472
469
465
460
455
449
443
437
430
424
418
413
407
403
400
396
395
393
392
392
392
393
394
395
395
395
395
393
391
388
384
380
375
371
366
361
355
351
346
341
337
333
329
326
323
321
319
317
315
314
313
313
313
312
314
314
316
318
321
324
328
332
336
341
346
352
357
361
366
370
373
376
378
380
380
380
380
378
377
374
372
369
366
362
359
355
351
347
344
341
338
335
332
330
328
327
326
326
326
327
328
330
333
337
341
345
349
353
357
361
365
367
369
371
372
372
372
371
370
368
366
364
361
358
355
352
349
345
343
340
338
335
333
332
331
330
330
330
331
332
334
337
340
343
348
351
355
359
362
366
369
371
373
375
376
376
376
376
374
372
370
368
365
362
360
356
354
350
347
344
341
339
337
335
334
333
333
333
334
335
337
340
344
348
352
356
360
364
367
370
373
375
377
378
379
379
379
378
377
375
373
371
368
365
362
359
356
353
350
347
345
343
341
339
338
337
337
337
338
339
340
343
346
350
354
358
363
367
370
374
377
380
382
384
385
385
385
384
383
381
379
376
374
371
368
365
361
358
355
352
349
347
344
343
342
341
340
340
341
343
344
347
350
354
358
363
367
372
376
380
383
386
388
390
390
391
390
389
388
386
384
382
379
376
373
370
367
364
361
358
356
353
351
350
348
347
346
346
346
348
349
352
355
359
363
367
371
375
378
382
385
388
390
392
393
393
393
392
391
389
387
385
382
379
376
372
369
366
364
361
358
356
353
352
350
349
348
348
349
350
352
355
358
362
366
371
375
380
384
387
390
393
396
397
398
398
398
398
396
395
393
391
389
386
383
380
377
374
371
368
366
364
362
361
360
359
359
360
361
363
365
368
371
375
379
383
388
392
396
399
403
405
408
409
411
411
411
411
410
408
406
404
401
399
396
393
391
388
386
383
381
379
378
377
376
375
375
376
376
378
380
383
386
389
393
397
402
405
410
413
416
419
422
423
425
425
425
425
424
422
420
418
415
412
409
406
404
401
399
396
394
392
390
389
388
387
387
387
388
389
392
394
397
400
404
408
412
416
420
423
426
428
430
432
432
433
433
432
431
430
428
425
422
420
417
413
410
407
404
402
399
397
395
393
392
392
391
391
392
393
395
397
400
404
407
411
415
419
422
425
428
430
431
432
433
432
432
430
429
426
424
421
417
414
410
406
402
399
395
392
389
387
384
382
381
379
378
378
378
378
379
381
383
385
388
391
395
398
401
403
406
407
409
409
409
409
407
405
403
400
397
393
390
386
382
379
374
371
367
364
361
358
355
353
351
350
349
349
349
350
351
353
355
358
362
365
368
372
375
378
380
381
383
383
384
383
382
381
379
377
374
371
367
364
360
357
353
350
347
343
341
338
336
334
332
331
330
329
330
330
332
334
337
340
344
348
351
355
359
362
365
367
369
370
371
371
370
370
368
367
364
362
359
357
353
350
347
344
342
338
336
334
332
330
329
328
328
328
330
331
334
336
340
343
347
352
356
360
364
367
369
372
373
374
374
374
374
373
371
369
367
364
361
358
355
352
348
345
342
339
336
334
331
329
328
327
326
326
327
329
331
334
338
342
346
351
355
359
363
367
369
372
373
375
375
376
375
373
372
370
368
365
362
359
356
353
350
347
344
342
340
338
336
335
334
333
333
333
334
336
337
340
342
345
349
353
356
360
363
366
369
372
373
375
376
376
376
375
373
372
369
367
365
362
359
356
353
349
347
344
341
339
337
335
334
333
333
333
334
336
338
341
344
347
351
355
358
362
366
369
371
373
375
376
377
376
376
374
373
371
368
366
363
360
357
354
352
349
347
344
341
339
337
335
334
333
333
333
333
335
337
339
342
347
350
355
359
363
366
370
372
374
377
378
379
379
379
378
376
374
372
369
366
363
360
357
353
350
347
345
342
340
338
336
335
334
334
334
335
336
338
341
344
348
352
356
360
365
369
372
375
378
380
381
382
382
381
380
379
377
374
372
369
366
363
360
357
354
351
348
345
343
340
338
337
336
336
336
336
338
340
343
346
349
354
358
362
366
369
373
376
378
380
382
383
382
382
381
379
377
375
372
369
366
363
360
357
354
351
348
346
344
342
340
339
339
338
338
339
340
342
345
348
351
355
358
362
366
369
372
375
377
379
380
381
381
381
380
379
377
374
372
368
365
362
358
355
352
350
347
345
343
341
340
339
339
338
339
340
341
344
347
351
354
358
362
366
370
373
376
378
380
382
383
383
383
382
381
380
378
376
374
371
368
365
362
359
356
354
352
349
348
346
344
343
342
342
342
343
344
346
348
351
354
358
362
366
370
373
376
378
380
381
382
383
383
382
381
379
377
375
372
369
366
363
359
356
353
350
347
344
342
341
339
338
337
337
337
339
340
343
346
350
354
358
362
367
371
374
378
381
383
385
386
386
387
386
385
384
382
380
377
374
371
367
364
361
357
355
352
350
347
345
343
341
340
340
340
341
342
344
346
350
353
357
361
365
369
373
376
378
380
382
383
383
383
382
382
380
379
377
374
371
369
365
362
359
356
353
350
348
345
343
341
340
338
337
337
338
339
341
343
346
350
354
358
362
366
369
373
375
378
379
380
381
381
380
380
378
375
373
370
367
364
361
358
355
352
350
347
344
342
341
339
338
337
337
337
338
339
341
344
347
351
355
359
363
367
371
374
377
379
381
383
383
384
383
383
382
380
377
374
371
368
365
361
358
355
352
350
347
345
343
342
341
340
339
340
341
343
346
349
353
357
362
366
370
373
377
380
383
385
388
388
389
389
388
386
385
383
381
378
375
372
369
366
363
360
357
354
351
349
347
345
344
343
342
343
343
345
347
350
353
357
362
366
370
374
378
382
385
388
390
391
393
393
393
393
392
390
389
387
384
381
379
375
373
370
367
364
362
360
358
356
355
354
353
354
354
356
358
360
364
367
371
375
379
383
386
389
391
393
394
395
395
394
394
392
391
388
386
383
380
377
373
370
367
364
361
358
356
353
351
349
347
346
345
345
345
347
348
351
354
357
360
365
368
372
375
378
381
382
383
384
384
383
381
379
377
374
371
368
365
361
358
355
351
349
346
343
341
339
337
335
334
333
333
333
334
336
338
341
344
348
352
355
360
363
366
370
373
375
376
377
378
378
377
376
374
372
369
367
363
360
357
354
351
347
344
341
339
336
335
333
331
330
330
331
331
333
335
338
341
345
349
354
357
361
365
368
370
372
374
375
376
376
375
374
372
370
368
365
362
358
355
352
348
345
342
340
337
335
333
332
330
330
329
330
330
332
334
336
340
344
348
352
356
359
363
366
369
371
373
374
374
374
374
373
371
369
367
364
361
357
354
351
347
344
341
338
335
333
330
329
327
327
326
326
327
328
331
333
337
340
344
348
352
356
360
363
366
369
370
371
372
372
371
370
369
367
365
362
360
357
354
352
349
347
345
343
341
340
339
338
337
336
337
337
338
340
342
345
348
352
357
361
366
370
374
379
383
386
389
392
395
397
399
400
402
403
404
406
407
408
410
411
412
414
416
418
420
422
424
426
428
429
431
432
434
436
437
439
441
442
444
445
446
446
446
446
446
445
444
443
441
439
437
435
432
429
426
421
416
411
404
396
388
379
371
362
354
345
337
330
323
317
313
309
307
306
307
308
311
314
318
322
326
331
336
340
344
347
351
354
356
358
360
361
361
361
360
360
358
356
354
352
351
348
346
343
341
340
338
336
335
334
334
334
334
335
337
339
342
346
349
353
357
360
363
366
368
371
372
373
374
374
373
372
371
369
366
364
361
358
355
351
348
345
342
339
336
335
333
331
330
329
329
330
331
332
334
337
340
344
348
352
356
360
364
367
370
372
373
374
374
374
374
373
372
370
368
365
362
358
355
351
348
345
341
338
336
334
331
329
328
327
326
326
327
329
330
333
336
340
344
349
353
357
361
364
367
370
371
373
373
374
373
372
371
369
367
364
361
358
355
352
349
345
342
339
337
334
332
330
329
328
328
328
328
330
332
334
338
341
345
349
353
357
360
364
366
369
370
370
371
370
370
368
367
364
362
360
357
354
351
348
345
342
340
337
335
333
332
330
330
329
329
330
331
333
336
339
343
347
351
355
358
362
365
368
370
373
374
375
376
376
376
375
373
371
369
366
363
360
357
354
351
348
345
343
340
338
337
335
334
334
334
334
335
337
339
343
346
350
354
358
362
366
370
373
375
377
379
379
379
379
378
377
375
373
371
368
365
362
359
356
353
350
347
345
343
341
339
338
337
337
337
338
339
341
343
347
350
354
358
363
367
371
374
378
381
384
385
387
388
388
388
387
385
383
381
378
374
371
368
365
362
359
356
354
352
350
348
347
346
346
345
346
347
349
351
354
358
361
365
369
374
377
381
384
386
389
390
392
392
393
392
391
389
387
385
383
380
377
374
371
368
364
362
359
357
355
353
352
350
350
349
350
351
353
356
359
363
368
372
377
381
385
389
392
395
398
400
402
402
403
403
402
400
399
397
394
392
388
385
382
379
376
374
371
369
367
365
364
363
362
362
363
364
366
368
371
375
379
383
387
392
395
399
402
404
406
407
407
408
407
407
406
404
402
400
397
395
392
389
387
384
382
379
377
374
373
372
370
370
369
370
370
371
373
376
379
382
386
390
395
398
402
405
408
411
413
414
415
415
415
415
413
412
409
406
404
401
398
394
391
388
385
382
380
378
375
373
372
371
370
370
370
371
373
375
378
381
385
389
393
397
400
403
406
408
409
411
411
411
410
409
407
405
403
400
396
393
390
385
381
377
373
368
365
361
358
355
353
350
349
348
347
348
348
350
353
356
359
362
366
369
373
376
378
380
382
382
383
383
382
381
379
377
375
372
369
365
361
358
354
351
347
344
340
337
335
332
330
329
328
327
327
328
329
331
333
336
339
342
345
349
352
355
357
360
362
363
364
364
364
363
362
359
357
354
351
348
344
341
337
334
330
327
324
321
318
316
314
312
311
310
310
312
314
316
319
323
326
331
335
339
343
346
350
352
354
356
358
358
358
357
356
355
352
350
347
344
341
338
335
331
328
325
323
320
318
317
315
314
314
314
315
316
318
320
323
326
330
334
338
341
345
348
351
353
355
356
357
357
356
355
353
352
349
346
344
341
337
334
330
327
324
321
319
317
315
314
313
313
313
313
314
316
318
321
325
329
333
337
341
345
349
352
354
357
359
360
361
361
360
359
358
356
354
351
348
345
342
339
336
333
330
328
325
323
321
320
318
318
317
318
319
320
322
324
328
331
335
339
343
347
351
354
357
360
361
363
364
364
364
363
361
359
357
355
352
349
346
342
339
336
333
330
327
325
324
322
321
320
320
320
321
322
324
327
331
334
339
343
347
351
355
358
361
363
365
366
366
366
366
365
363
362
359
357
354
351
348
345
342
339
336
334
332
330
328
326
325
325
324
324
325
326
328
331
334
338
342
347
351
355
359
363
366
368
370
371
372
372
371
370
368
366
364
361
358
355
352
349
346
343
340
338
335
333
331
329
328
326
326
326
327
328
330
333
335
340
343
348
352
356
360
364
367
370
372
374
375
375
375
375
374
372
371
369
366
364
361
357
354
351
348
346
343
341
339
337
336
335
335
335
335
337
338
342
344
348
352
356
360
364
368
371
374
377
378
380
380
380
380
378
377
375
373
370
367
364
360
358
354
351
348
345
343
341
339
338
336
336
335
336
337
339
341
344
348
352
356
361
365
369
372
375
378
380
382
383
384
384
383
382
381
379
376
373
370
367
364
360
357
354
351
349
346
344
342
340
339
339
338
339
340
341
344
347
350
354
358
362
366
370
374
377
380
383
384
385
386
386
385
384
383
381
378
376
373
370
367
364
361
358
355
353
350
348
346
344
342
341
341
341
341
342
344
347
350
353
358
362
367
371
375
379
382
384
386
387
388
387
386
385
384
382
380
378
375
373
370
367
364
361
357
355
352
349
347
345
343
342
341
342
341
342
344
346
350
353
357
361
365
369
372
376
378
380
382
384
384
384
383
382
381
379
377
375
372
370
367
364
361
359
356
353
351
349
348
346
345
344
344
344
344
345
347
350
352
355
359
363
367
370
374
377
380
382
384
385
386
386
386
384
383
382
379
377
373
370
368
365
361
359
356
353
351
349
347
345
344
343
343
343
344
346
348
350
353
356
360
364
368
371
374
377
380
381
383
384
385
385
384
384
382
381
378
376
373
370
367
364
360
358
355
353
350
349
347
345
344
344
343
343
344
345
348
350
353
357
361
365
369
373
376
380
383
385
387
388
389
390
389
389
387
385
383
380
378
375
372
368
365
362
359
356
354
351
349
348
347
346
346
346
347
349
351
353
356
360
364
368
372
375
379
382
385
387
388
389
390
390
389
388
386
385
382
380
377
373
371
367
364
362
359
357
354
353
351
350
349
348
348
348
349
351
353
357
360
364
369
374
379
383
387
391
394
398
400
402
403
404
404
404
403
400
398
395
392
389
385
382
378
375
371
368
365
363
361
359
358
357
356
357
358
360
363
366
370
374
378
383
387
391
394
397
400
401
403
403
403
403
403
402
400
398
396
393
390
387
384
380
377
373
370
367
364
362
359
357
356
354
354
354
354
355
357
359
362
365
369
373
376
380
383
385
388
389
390
391
390
390
389
387
385
382
379
376
372
369
366
363
359
356
354
351
349
347
345
344
343
342
342
342
344
345
347
351
353
357
361
365
368
371
375
378
380
382
384
385
385
385
384
383
381
379
377
374
371
368
365
362
359
356
354
351
349
347
345
343
342
341
341
341
341
343
345
348
351
355
358
362
366
369
373
375
378
380
382
383
383
383
382
381
379
377
375
373
371
368
365
363
360
357
354
352
350
348
346
344
343
343
342
343
344
345
348
350
354
358
361
365
369
372
375
378
381
383
384
385
385
385
384
383
381
379
377
375
372
370
367
364
361
358
356
353
351
349
348
347
346
346
345
345
346
347
349
352
355
358
362
366
370
373
376
379
381
383
384
385
386
386
385
384
383
381
380
378
376
374
373
370
369
366
364
362
360
358
356
355
354
353
352
353
354
356
359
363
367
373
379
385
391
397
404
410
416
422
427
432
437
442
445
448
451
453
455
457
459
460
461
461
461
461
459
458
456
454
451
448
445
442
438
435
433
430
429
428
428
428
430
432
434
437
439
441
443
445
445
445
444
441
438
433
427
419
411
403
393
384
375
366
357
350
342
337
331
327
323
321
319
318
317
318
319
322
325
329
334
339
345
351
357
363
369
374
378
382
386
389
391
392
393
394
393
392
391
389
386
384
381
378
374
371
368
365
362
360
357
355
354
353
352
352
352
353
355
358
361
364
368
372
376
379
382
385
388
390
392
393
393
393
393
392
390
389
387
384
381
378
375
373
370
367
364
362
359
357
356
355
354
354
354
354
355
357
360
362
366
370
374
378
382
386
389
392
395
397
399
400
400
400
399
397
396
393
390
388
384
381
377
374
371
367
364
361
358
356
354
352
350
349
349
349
350
352
354
357
360
364
368
373
378
381
385
388
391
394
396
396
397
397
396
396
394
392
390
387
384
381
378
375
372
369
367
365
363
361
359
358
357
357
357
358
359
361
364
367
371
374
379
383
387
391
394
398
400
402
404
405
406
405
405
404
402
400
397
395
391
388
385
382
379
376
373
370
368
366
364
363
362
361
361
362
363
365
367
370
373
377
381
386
389
393
397
401
403
406
408
409
410
410
410
409
408
406
403
401
398
395
393
390
387
384
381
379
377
375
373
372
371
370
370
370
371
373
375
378
381
385
389
393
398
401
405
408
411
413
415
417
417
418
417
416
415
413
410
407
404
401
398
395
392
389
386
383
381
379
378
377
376
375
376
376
377
380
382
385
388
393
397
401
405
409
413
417
419
422
424
426
426
426
426
424
423
421
418
415
412
409
406
404
400
398
395
393
391
389
388
387
386
386
386
387
388
391
393
396
400
404
408
413
417
422
425
429
432
434
436
437
437
437
436
435
434
432
429
426
423
420
417
414
411
408
406
403
400
398
397
395
394
394
394
395
397
398
401
404
408
412
416
421
425
429
433
437
440
442
444
446
446
447
446
445
444
442
439
437
434
431
428
425
421
419
416
413
411
409
407
406
405
405
405
405
406
408
411
414
418
422
427
431
435
439
443
446
449
451
452
453
453
453
452
451
450
448
446
443
440
437
434
430
427
424
421
418
415
413
411
409
407
406
406
407
407
409
411
414
417
421
425
429
433
436
440
443
445
447
449
450
451
451
450
449
448
446
442
439
436
434
430
427
423
420
417
414
412
410
407
406
404
403
402
402
402
403
404
406
408
411
414
417
420
422
425
426
428
429
429
429
429
427
426
423
420
417
414
410
406
403
399
396
393
389
385
382
379
377
374
372
370
368
367
366
366
367
368
370
372
375
378
381
384
386
389
391
392
393
394
394
393
392
390
388
386
383
380
377
374
370
366
363
359
355
352
349
346
343
341
339
337
336
336
336
337
339
341
344
347
350
354
357
361
364
367
370
373
374
375
376
376
375
374
372
370
368
365
362
358
355
352
348
345
341
338
335
333
330
328
326
325
324
323
324
325
326
328
331
334
338
342
347
350
354
358
361
364
366
367
368
368
368
368
366
365
363
361
358
355
352
349
346
343
340
337
335
332
330
328
327
326
325
325
325
326
328
330
333
337
340
345
348
352
355
358
361
363
365
366
367
367
367
366
364
363
361
358
356
353
350
348
344
341
339
336
333
331
329
327
326
325
324
324
324
326
327
330
333
336
340
344
349
352
356
359
363
365
367
368
369
369
369
368
367
365
363
361
358
355
352
349
346
343
340
338
335
333
331
329
328
327
326
327
327
328
330
333
335
339
342
346
351
354
358
361
364
366
369
370
371
371
371
370
369
367
365
362
359
356
353
350
346
342
339
336
334
331
329
328
326
326
325
326
326
328
330
332
336
339
343
347
352
356
360
363
366
368
370
371
372
372
372
371
369
367
364
362
359
356
353
350
347
343
341
338
336
334
332
330
329
328
328
328
328
329
331
332
336
339
343
347
351
355
359
362
365
368
369
371
371
371
371
370
368
366
364
361
358
355
352
349
346
343
340
337
335
333
331
329
328
327
327
327
327
328
330
333
336
340
343
348
351
355
358
361
364
367
368
370
370
371
370
370
369
367
365
363
360
357
354
351
348
345
342
340
337
335
333
331
331
329
329
329
329
330
332
334
337
341
345
348
352
356
359
363
366
368
370
371
372
372
372
371
370
369
367
365
362
359
356
353
349
346
343
340
338
335
333
331
329
328
327
326
327
328
330
332
336
339
343
347
351
355
359
363
366
369
371
372
373
374
373
373
371
370
367
365
362
360
357
353
350
347
345
342
339
337
335
333
332
331
331
330
331
333
334
337
340
344
348
352
356
360
363
367
369
372
373
374
375
375
375
374
372
371
369
366
364
360
358
355
352
348
346
343
341
339
337
335
334
333
333
333
333
335
337
339
343
346
350
354
359
362
367
370
373
376
377
379
380
381
380
379
378
376
374
372
369
366
363
359
356
353
350
347
345
342
341
339
338
337
336
336
337
339
340
343
346
349
353
357
361
365
369
373
375
378
380
382
383
383
383
382
381
379
377
374
371
368
365
361
358
355
352
349
347
344
342
341
339
338
337
337
338
339
340
342
345
348
352
356
360
364
367
370
373
375
377
379
379
379
380
378
378
376
374
371
369
366
363
360
356
353
351
348
346
344
342
340
339
338
337
337
338
340
342
344
347
351
354
359
363
367
370
374
377
380
382
384
385
385
385
384
383
381
379
376
374
370
368
364
361
357
354
351
347
344
342
339
338
336
336
335
336
337
339
342
345
349
352
357
361
364
368
371
375
377
379
380
381
381
380
379
377
375
373
371
368
365
362
358
355
352
349
346
343
341
339
338
336
336
335
336
336
338
340
343
346
350
354
358
363
367
372
375
378
381
383
385
386
386
386
385
384
381
379
377
373
370
367
363
360
356
353
351
348
346
344
342
341
340
340
340
340
342
344
346
349
353
357
360
364
368
372
375
378
380
381
382
382
382
381
380
378
375
373
370
366
363
360
356
353
350
346
343
340
337
334
332
330
329
328
328
328
329
330
332
335
338
342
346
349
353
356
358
361
363
364
365
365
365
364
363
361
359
357
354
351
348
345
341
338
335
332
329
327
325
323
321
320
319
319
319
320
322
324
327
330
334
338
343
348
352
356
359
362
364
366
367
368
368
367
366
364
362
359
356
353
350
347
343
339
336
333
330
327
324
322
321
319
318
318
318
318
319
320
323
325
329
332
336
340
344
347
351
354
356
357
358
359
359
358
357
355
354
352
349
347
344
341
339
335
333
330
327
325
322
321
319
317
315
314
313
313
314
316
318
321
324
327
331
335
339
343
347
350
352
354
355
356
356
355
354
353
351
349
347
344
342
339
336
333
330
328
325
323
320
318
317
316
315
314
314
315
316
318
320
324
327
332
336
340
345
349
353
356
359
362
364
365
366
366
366
365
364
362
360
358
355
353
350
348
345
343
341
340
339
338
338
338
339
341
344
347
352
357
363
370
377
385
394
402
410
418
426
433
440
446
452
456
460
462
464
464
463
461
458
455
450
446
440
435
429
424
419
413
409
404
400
397
394
392
391
390
391
392
393
396
398
400
401
402
401
400
398
395
390
386
380
374
369
362
356
351
345
340
335
331
326
323
320
318
316
315
314
313
313
314
314
316
317
319
322
325
328
332
337
342
347
352
357
362
366
370
374
377
380
382
384
385
385
384
383
382
379
377
374
371
368
364
361
357
353
350
347
344
340
337
335
333
331
330
330
330
331
333
335
337
340
344
348
351
355
358
361
363
366
368
369
371
370
371
370
368
366
364
361
358
355
352
349
346
343
340
337
335
333
331
330
329
328
328
328
330
331
333
336
339
343
347
351
354
359
362
365
368
370
371
372
372
373
372
371
369
367
365
363
360
357
354
352
349
346
344
341
339
337
335
333
332
331
330
330
331
333
335
338
341
345
348
353
357
361
364
367
370
372
373
374
375
375
375
374
372
370
368
365
362
359
356
353
350
347
344
341
339
337
335
334
333
333
333
334
334
336
339
342
345
349
354
358
363
366
370
374
377
379
381
382
382
382
382
381
379
377
374
371
368
365
362
358
355
352
348
345
342
340
338
336
335
335
334
335
336
337
339
342
346
350
355
359
364
368
372
375
379
381
383
384
384
384
383
382
381
379
377
374
371
368
365
362
358
356
353
350
348
346
343
342
340
340
339
340
341
342
344
346
350
353
358
362
366
370
373
377
380
382
384
386
387
387
387
386
385
383
381
378
376
373
370
367
365
362
359
357
354
353
351
350
349
348
347
347
348
349
352
354
357
361
365
369
373
377
381
384
387
389
391
392
393
392
392
390
389
387
385
382
380
377
374
372
369
367
364
362
360
358
356
355
354
353
353
354
355
356
359
362
365
369
373
377
381
385
388
392
395
397
399
400
401
401
400
400
398
396
394
391
389
386
383
381
378
375
372
370
368
366
365
363
362
361
361
361
363
364
367
370
374
378
383
387
391
395
399
403
406
409
411
412
414
414
414
413
413
411
409
407
405
402
399
396
393
389
386
383
381
378
376
375
373
373
373
374
375
377
380
383
386
390
393
397
401
405
408
411
414
416
417
418
419
419
418
417
416
414
412
410
407
404
401
398
395
392
389
387
385
382
381
379
378
377
377
377
378
379
382
384
387
391
395
399
403
407
411
414
417
419
420
421
421
421
419
417
415
413
411
407
405
401
398
394
391
387
384
381
378
375
373
371
369
368
367
366
366
367
369
372
374
378
381
384
386
389
391
393
394
395
395
395
394
393
390
388
386
382
379
375
371
367
363
359
355
352
348
345
342
339
336
334
332
331
330
329
329
330
332
334
336
340
344
348
351
354
357
360
361
363
364
364
363
362
360
358
356
354
351
348
344
341
337
334
330
326
323
320
317
315
313
311
310
309
309
310
312
314
318
322
326
331
335
338
341
344
345
347
348
349
349
349
349
347
346
344
341
339
336
332
329
326
323
319
316
313
310
308
306
304
302
301
300
300
300
300
301
303
305
308
311
315
318
323
326
330
333
336
338
340
342
343
343
343
343
342
340
338
336
333
330
326
323
320
316
313
310
307
305
303
302
300
300
299
299
299
300
301
303
306
308
312
315
319
323
326
330
333
336
338
339
340
341
341
340
339
338
337
335
332
330
327
324
321
318
315
311
308
305
302
299
297
295
294
294
294
294
297
299
302
305
309
314
317
322
326
330
334
336
339
341
342
343
343
343
342
341
339
337
334
331
328
325
322
319
316
313
310
307
304
303
301
299
299
298
298
299
301
304
307
311
315
319
323
327
331
335
338
341
343
345
346
346
346
344
343
341
338
335
333
329
326
323
319
316
313
310
307
304
302
300
299
297
297
297
297
298
299
302
305
309
313
318
322
326
330
334
336
339
341
343
344
344
343
342
341
339
337
334
331
328
325
322
319
315
312
309
307
305
303
301
299
298
297
297
296
297
299
301
304
307
310
314
318
322
326
330
332
335
337
339
340
341
341
341
340
338
336
334
331
327
324
321
318
315
312
309
306
304
301
300
297
297
296
296
296
297
299
301
305
308
312
316
320
324
328
331
334
336
338
339
339
339
339
338
336
335
332
330
327
324
320
317
314
311
308
306
303
301
300
298
296
295
295
295
295
296
298
300
303
306
309
313
317
320
324
327
329
331
333
335
335
336
336
335
334
333
331
328
326
323
320
317
313
310
306
304
301
299
297
295
294
294
294
294
295
296
298
301
304
307
311
314
318
322
326
330
333
336
338
339
341
341
341
341
340
338
336
334
331
328
325
322
318
315
312
309
307
305
302
300
299
297
296
295
296
296
298
300
303
307
311
315
320
324
328
332
335
338
340
342
343
343
343
342
341
340
338
336
333
330
327
323
320
318
314
311
309
307
305
303
302
301
301
301
302
303
305
308
311
314
318
322
326
330
334
337
340
343
346
347
349
348
349
348
346
345
343
341
338
335
332
329
325
322
319
317
314
312
310
308
307
305
305
306
306
307
309
311
314
317
320
324
328
332
335
338
341
344
346
348
349
350
349
349
349
347
345
344
340
338
335
332
328
325
322
319
316
314
311
309
307
306
305
305
305
307
309
311
315
318
322
326
330
334
338
342
345
348
350
353
354
355
355
354
353
351
348
345
342
339
335
331
328
324
321
318
315
312
310
308
307
305
305
304
305
305
307
309
312
316
319
324
329
333
337
341
344
348
350
352
353
353
354
353
353
352
350
348
346
344
342
340
338
335
333
331
330
328
327
326
325
325
325
326
327
328
330
332
335
338
341
345
349
352
356
359
361
363
365
366
367
367
366
365
363
361
359
357
354
351
347
344
340
337
334
331
327
325
322
320
318
316
316
315
316
316
318
320
323
326
330
334
337
341
344
347
350
352
354
355
356
357
356
355
354
352
349
346
343
340
336
333
328
325
321
317
314
311
309
307
305
303
303
302
303
304
306
308
311
315
318
322
326
329
333
336
339
341
343
344
345
346
345
345
343
341
339
337
334
331
328
325
321
318
315
312
309
307
304
302
300
299
298
298
298
300
301
304
307
310
315
319
323
327
331
335
338
341
343
344
345
345
345
344
343
340
338
335
332
329
325
322
318
315
312
308
306
303
302
300
299
298
298
298
298
299
301
303
306
309
313
317
322
326
329
332
335
338
339
341
341
342
341
340
339
338
336
333
331
328
325
321
318
314
311
307
303
301
298
295
293
292
291
291
292
293
294
297
299
302
305
309
313
317
320
324
327
329
332
333
334
334
334
334
332
331
329
328
326
323
320
317
313
310
307
303
300
298
296
294
293
292
292
292
292
293
294
297
299
303
306
310
314
318
321
324
327
329
331
333
334
335
335
336
336
336
336
335
335
335
335
336
336
337
337
339
341
343
346
349
352
356
360
365
370
375
381
386
392
398
403
408
412
416
418
420
422
422
421
420
418
415
412
408
404
399
394
389
384
379
374
370
365
360
355
351
345
340
333
327
320
312
305
298
292
287
282
279
277
277
277
278
280
283
286
289
292
295
298
300
303
305
307
308
309
310
309
309
308
308
307
305
304
303
302
300
299
298
297
296
296
296
296
297
298
300
302
304
307
310
314
318
321
325
328
330
333
335
336
336
337
337
336
336
334
332
330
328
325
321
319
316
312
309
306
304
301
299
297
295
294
293
292
292
292
293
295
297
300
303
308
312
316
320
325
328
332
334
337
338
339
340
340
339
338
336
334
332
329
326
323
320
317
314
311
308
306
304
302
300
299
298
298
298
298
299
300
303
306
309
313
317
320
324
328
331
335
337
339
342
343
343
343
342
340
338
336
334
330
327
324
321
318
315
312
310
307
305
303
302
301
301
300
301
302
303
306
308
311
314
319
322
326
330
333
337
340
342
344
346
347
347
346
345
344
342
340
337
335
332
329
326
324
321
318
316
313
311
309
307
306
305
305
305
306
307
309
312
316
320
325
330
335
339
343
347
349
352
353
354
355
355
355
354
352
350
347
345
342
339
336
333
330
327
324
321
319
317
316
315
315
314
315
315
317
318
321
324
327
330
334
337
341
345
349
352
355
357
359
361
361
361
361
360
358
356
354
351
348
345
342
339
336
333
330
328
325
323
322
320
320
319
320
320
321
323
326
328
332
336
340
344
349
352
355
358
361
363
365
366
366
366
365
364
363
361
359
357
354
351
348
345
342
339
336
333
331
328
326
325
324
324
323
324
325
327
329
332
335
339
343
348
352
357
361
365
368
371
373
375
376
376
376
375
374
372
370
367
365
362
359
357
354
351
349
346
344
342
341
340
339
339
339
340
341
342
344
347
350
353
357
361
366
369
373
377
380
383
385
387
388
388
388
387
386
385
383
381
379
376
374
371
368
366
363
361
359
357
355
354
353
353
353
353
355
356
358
361
364
368
372
376
380
384
387
390
393
395
397
398
399
399
398
397
396
393
391
389
386
383
381
378
375
373
370
369
367
366
365
364
363
363
363
363
364
365
367
370
373
376
380
384
387
390
394
397
399
401
402
403
404
403
404
402
401
399
398
395
392
389
386
383
379
376
374
371
369
366
364
363
361
360
359
359
360
361
363
365
368
371
375
379
382
386
389
392
394
396
398
398
398
397
397
394
392
390
387
383
380
376
372
368
364
360
356
352
349
345
342
339
337
335
334
333
333
334
335
336
339
341
344
348
351
354
357
360
362
363
365
365
366
365
364
363
361
358
355
352
349
345
342
338
334
330
327
323
320
317
314
311
309
308
307
307
307
308
310
312
315
318
322
325
329
332
335
338
341
342
344
344
344
344
343
341
339
337
335
331
328
325
321
318
314
311
308
305
303
300
299
297
296
295
294
294
294
296
297
299
302
306
309
313
318
321
325
328
331
333
334
336
336
336
336
334
333
331
328
326
323
320
317
314
311
308
305
303
300
298
296
295
293
292
292
292
293
294
296
298
302
305
309
312
317
320
324
327
329
332
333
335
335
336
335
335
333
332
329
327
324
321
318
316
313
310
307
305
303
301
299
298
297
297
297
298
299
300
303
305
309
313
317
321
325
329
332
335
337
340
341
342
343
342
341
340
338
336
333
330
327
324
321
318
315
312
309
307
305
303
301
300
299
298
298
299
300
302
304
307
311
315
319
324
328
332
336
339
342
344
345
347
346
346
345
343
340
338
335
332
328
325
321
318
314
311
308
306
303
301
299
298
296
295
295
295
296
298
300
303
307
311
315
320
324
328
332
335
338
340
342
344
344
345
344
343
342
340
337
335
332
329
326
323
320
318
315
312
310
307
305
304
302
301
301
302
303
304
306
309
312
316
320
324
328
332
336
340
343
345
347
348
348
348
348
346
344
342
340
337
334
331
327
324
321
318
315
313
311
308
307
305
304
304
303
304
306
307
309
312
315
318
322
326
330
333
337
340
342
344
345
346
347
346
346
344
343
341
338
336
333
330
327
324
320
318
315
312
310
309
307
306
305
305
304
304
306
308
310
313
316
320
323
327
331
335
338
341
344
346
347
348
348
348
348
347
345
343
340
338
335
332
329
326
323
320
317
315
313
311
310
309
307
307
307
307
308
309
311
314
317
320
323
327
331
334
338
341
344
346
347
348
349
349
348
347
345
343
341
338
336
332
329
326
323
321
318
316
313
312
310
308
307
307
306
306
307
308
310
312
315
319
322
326
330
334
338
341
344
346
348
349
350
350
350
349
348
345
343
341
338
335
332
329
326
323
319
317
314
312
310
308
307
306
306
306
306
308
310
312
316
319
323
327
331
335
338
341
344
346
348
349
350
350
350
348
347
345
343
340
338
335
332
328
325
321
318
316
312
310
308
307
305
305
305
305
307
309
311
315
318
322
326
331
335
338
342
345
348
351
353
353
354
354
353
352
351
349
346
343
340
337
333
331
327
324
321
318
315
313
311
309
308
307
307
307
308
310
312
315
318
323
327
331
336
340
343
346
349
351
353
354
354
355
354
353
351
350
347
345
342
339
336
332
329
326
323
321
318
316
314
313
312
311
311
311
312
314
316
319
323
327
332
336
340
343
347
350
352
354
356
356
356
356
355
353
351
349
346
342
339
336
332
329
326
323
320
318
315
314
312
311
310
310
310
311
312
314
317
320
324
328
333
337
341
345
348
351
353
356
357
357
358
358
357
356
354
352
349
347
343
340
337
335
332
329
326
323
320
318
316
315
314
314
314
314
315
316
319
322
325
329
333
337
341
345
348
352
354
356
358
359
359
359
358
357
355
353
351
348
345
342
339
336
333
330
327
325
323
321
320
319
319
319
319
320
322
325
327
331
335
339
343
347
351
354
357
360
363
365
366
367
368
367
367
365
363
361
358
355
351
348
345
341
338
335
332
329
327
324
323
321
320
319
319
320
320
322
324
327
330
333
337
341
344
348
351
355
357
360
361
362
362
362
361
360
357
355
352
348
345
341
338
334
331
328
325
321
319
316
314
312
311
310
309
310
310
312
314
316
319
323
327
330
334
338
341
343
346
347
349
350
350
350
349
347
346
344
341
338
336
332
329
326
323
320
317
314
312
310
308
307
305
306
305
306
307
309
312
315
319
322
327
331
334
338
342
344
347
349
351
352
352
352
352
351
349
347
344
342
338
335
332
328
325
322
319
316
314
312
310
309
308
308
307
308
309
311
313
316
319
323
327
332
336
340
344
347
350
353
354
356
356
356
356
355
354
353
350
348
346
343
340
336
333
330
327
324
322
319
317
315
314
313
313
314
315
317
320
323
326
330
335
339
343
347
350
353
356
357
358
359
360
359
358
357
356
353
351
349
346
343
339
337
333
331
328
325
323
321
319
318
318
317
317
318
319
321
323
326
330
334
338
342
347
351
354
358
361
364
366
368
369
369
369
368
366
364
362
359
356
354
351
348
346
344
343
342
342
342
343
344
346
348
351
355
360
366
373
381
389
398
407
416
425
434
442
449
457
463
468
472
475
476
476
474
472
469
464
460
453
447
441
433
426
420
413
407
402
397
393
389
386
385
383
383
383
384
386
387
388
389
390
390
389
388
386
382
379
375
372
368
364
360
356
352
348
345
342
338
335
332
329
327
324
322
321
320
319
319
319
320
321
323
325
328
331
335
339
343
348
353
358
363
367
371
375
378
380
382
383
384
383
383
381
380
378
375
371
368
364
361
357
354
351
348
345
342
340
338
336
334
334
332
332
332
333
335
337
340
343
347
351
355
359
362
365
368
370
372
373
374
374
374
374
373
371
370
367
364
361
358
355
352
350
347
344
342
340
338
336
335
334
333
333
334
335
337
340
342
346
349
354
358
362
365
369
372
374
377
378
378
379
379
378
377
375
373
371
368
365
361
358
355
352
349
346
344
342
341
340
339
338
338
338
339
340
342
346
349
353
357
361
365
368
372
375
378
381
383
384
384
384
384
383
382
380
378
375
373
370
367
364
361
358
355
352
349
347
344
343
341
340
339
340
340
342
343
345
348
352
355
359
363
366
369
373
376
378
380
381
382
382
382
381
380
379
376
374
372
369
367
364
361
359
356
353
351
349
347
346
344
344
343
343
344
345
347
350
353
357
360
365
368
372
376
380
383
386
388
390
391
391
391
391
390
388
386
383
381
378
375
372
369
366
363
361
358
356
354
352
351
350
349
349
350
351
352
354
357
360
364
368
372
376
379
382
385
388
390
392
392
393
392
391
390
388
387
384
382
379
376
374
371
368
366
364
361
359
357
356
355
354
354
353
354
356
358
360
364
367
371
375
379
382
386
389
391
393
395
396
397
397
396
395
394
392
390
388
385
383
380
377
374
372
369
367
365
363
361
360
359
358
358
358
359
360
362
365
368
371
375
379
383
388
391
395
398
400
402
403
404
404
403
402
401
399
397
395
392
389
386
383
381
378
375
373
371
369
367
366
366
365
365
366
367
368
371
373
377
381
384
388
392
396
400
403
405
408
409
411
412
412
412
411
410
408
406
404
401
398
395
392
389
386
384
381
379
377
375
374
373
373
372
373
374
376
378
381
384
388
392
396
399
403
406
410
412
415
416
417
418
419
418
418
416
415
412
410
408
405
402
399
396
393
390
387
385
382
381
379
378
377
376
376
377
378
380
383
386
390
394
398
402
406
409
412
415
417
419
419
420
420
419
418
416
414
412
408
405
402
399
396
393
391
387
384
381
378
375
373
371
369
368
367
367
368
368
370
372
375
378
382
384
387
389
392
394
396
397
397
397
396
395
393
391
388
385
382
379
375
371
368
364
360
356
353
350
347
345
343
341
340
339
339
339
340
342
344
346
350
353
356
360
363
366
369
371
373
374
375
376
375
374
373
371
369
367
365
362
359
357
355
352
349
346
343
340
338
335
333
331
329
327
327
327
328
329
332
334
338
341
345
349
352
356
358
361
362
364
365
365
365
364
363
361
359
357
355
352
349
347
344
341
338
335
333
330
328
326
324
323
323
322
323
324
325
328
330
334
338
342
346
351
354
358
361
364
366
368
368
369
369
368
367
365
363
361
358
355
352
350
346
343
340
337
335
332
330
328
327
325
324
324
324
324
325
327
330
333
336
340
344
348
352
355
358
361
364
367
368
369
369
369
368
367
365
363
360
357
354
351
348
345
342
339
336
334
331
329
328
326
326
325
326
327
328
331
334
337
341
345
349
353
357
361
364
366
369
370
371
372
372
372
371
370
368
366
363
361
358
356
353
350
347
345
342
340
339
337
336
336
335
335
335
336
337
340
342
345
349
353
356
360
363
366
369
371
372
374
375
375
375
375
374
372
371
369
367
364
361
359
356
353
350
347
344
342
339
337
335
334
333
333
333
334
336
338
341
344
348
353
357
362
366
369
373
376
378
380
381
381
381
380
379
377
375
373
370
367
364
362
359
355
353
349
346
343
341
338
337
336
335
334
334
335
336
338
341
345
348
352
357
361
365
368
371
374
377
378
380
381
381
381
380
379
378
375
373
370
367
364
361
358
355
352
349
348
345
344
343
342
341
341
342
342
344
346
349
352
356
360
365
369
373
376
379
382
384
386
388
389
389
389
388
386
384
382
380
377
374
371
367
365
361
359
356
354
352
349
348
346
345
345
345
347
349
351
354
358
362
367
371
376
379
383
386
388
390
391
391
391
391
390
388
386
384
381
378
375
371
369
365
362
358
355
352
350
348
346
345
344
343
343
343
344
345
347
350
353
357
361
365
369
372
375
378
381
382
384
385
385
385
385
384
383
381
379
376
374
372
369
366
363
360
357
355
352
350
349
347
346
346
345
346
347
349
351
354
358
362
366
371
375
379
382
385
388
390
391
393
393
393
392
391
391
388
387
384
382
379
376
373
370
367
364
362
359
357
355
353
352
350
350
350
350
351
353
356
359
363
366
370
374
378
382
385
388
391
392
394
395
396
395
394
393
391
389
386
383
380
377
373
370
367
364
362
359
358
356
356
355
355
356
357
359
362
365
369
373
378
382
387
390
394
397
400
401
403
404
404
403
403
401
400
398
396
393
391
388
385
382
380
377
374
372
369
367
365
363
362
361
360
359
360
361
362
364
367
371
374
378
382
386
389
393
395
398
400
401
402
402
402
401
400
399
397
394
392
389
386
382
379
376
373
370
368
366
364
362
361
360
360
360
360
361
363
365
368
371
375
379
383
388
391
395
398
400
402
403
404
404
403
402
400
399
397
394
391
389
386
383
380
377
375
372
370
368
365
364
362
362
361
361
362
363
365
368
370
374
377
382
386
390
393
396
400
402
405
407
408
409
409
409
408
406
404
401
398
395
392
389
385
382
379
376
374
372
371
369
369
367
367
367
368
369
371
374
376
380
384
388
392
397
401
405
408
412
414
417
419
419
419
419
418
417
415
413
411
408
406
403
400
397
394
391
388
385
383
381
379
377
376
376
376
376
377
379
381
384
388
391
395
399
403
406
409
412
414
416
417
418
418
417
416
414
412
410
407
404
401
397
394
391
388
385
382
379
377
374
372
371
369
369
368
369
370
372
375
378
382
386
390
394
397
399
402
403
404
405
405
405
403
402
400
398
396
393
390
387
384
381
378
374
371
369
366
364
361
360
358
357
356
356
356
357
359
362
365
368
372
377
381
385
388
392
394
396
398
399
400
400
399
398
396
394
392
389
386
383
380
377
374
371
367
364
362
360
358
357
355
353
353
353
354
355
357
359
362
365
369
373
377
380
384
388
391
393
395
397
398
398
398
398
396
395
393
390
387
384
381
378
374
371
368
365
361
359
356
354
352
351
350
350
350
351
353
356
359
363
367
371
375
379
382
386
389
391
393
394
395
395
395
394
393
391
389
387
384
382
378
375
372
369
366
363
360
357
355
352
350
349
349
349
349
351
353
355
359
363
367
371
375
379
382
386
388
391
393
394
395
395
395
394
393
392
390
387
385
382
379
376
373
371
368
366
363
361
359
357
356
355
355
356
356
358
361
364
368
374
379
385
392
399
405
412
418
424
430
436
441
445
449
453
456
459
461
463
464
465
466
465
465
464
463
461
459
456
453
450
447
444
441
438
436
435
433
433
433
434
435
437
439
442
444
446
448
449
449
449
447
445
440
435
428
420
411
402
392
383
373
364
355
348
341
335
329
325
322
319
318
317
318
319
321
324
327
331
336
341
348
354
360
367
372
378
382
387
390
393
395
396
397
397
396
394
392
390
387
384
381
378
375
372
368
365
362
359
357
354
352
351
350
349
349
350
352
354
356
359
363
367
371
375
379
383
386
388
390
392
393
393
393
393
391
390
388
385
383
380
377
374
370
368
365
362
359
358
356
355
354
353
352
352
353
354
356
358
361
364
367
371
375
379
382
386
389
391
393
395
395
396
396
394
393
392
390
387
384
381
378
375
372
369
366
363
361
358
356
355
353
352
352
352
353
354
356
359
362
366
369
374
378
382
385
388
391
393
395
397
397
397
397
396
394
392
390
387
385
382
379
376
373
370
367
365
363
360
359
357
356
354
353
353
353
354
356
358
361
365
369
373
378
382
386
389
392
395
396
397
398
398
398
397
396
394
392
389
387
385
382
380
377
375
373
370
368
367
365
363
362
361
359
359
359
360
361
364
367
370
374
377
381
384
388
391
394
397
399
400
401
401
401
401
400
399
397
395
392
389
387
384
381
379
376
373
371
369
367
367
365
365
365
365
365
367
369
371
375
379
383
388
393
397
401
405
408
410
412
414
415
415
414
413
412
410
408
405
403
400
397
393
390
386
383
380
377
375
373
371
370
369
369
369
370
371
373
375
379
382
386
390
395
399
403
407
411
413
416
418
419
419
419
418
417
415
412
410
407
404
401
398
395
392
389
387
385
383
381
380
379
378
377
378
378
380
382
385
388
392
396
401
405
410
414
417
421
423
425
426
427
427
427
427
426
424
422
420
418
415
411
409
405
403
400
398
396
393
392
391
389
389
389
389
390
391
393
395
399
402
406
411
415
419
423
427
430
433
435
436
437
438
438
437
436
434
433
430
427
425
422
419
416
413
411
409
406
405
403
402
401
400
400
400
401
402
404
407
410
414
418
422
426
430
434
438
441
